14.0 6228.0
26.0 6179.0
26.0 6186.0
26.0 6195.0
26.0 6204.0
26.0 6214.0
26.0 6222.0
26.0 6230.0
26.0 6238.0
26.0 6246.0
26.0 6254.0
26.0 6262.0
26.0 6271.0
26.0 6281.0
26.0 6291.0
26.0 6301.0
26.0 6311.0
26.0 6321.0
62.0 6230.0
87.0 6235.0
112.0 6188.0
112.0 6223.0
112.0 6257.0
112.0 6302.0
129.0 6193.0
129.0 6229.0
129.0 6269.0
129.0 6316.0
157.0 6246.0
159.0 6238.0
166.0 6246.0
167.0 6254.0
185.0 6226.0
185.0 6324.0
217.0 6186.0
217.0 6219.0
217.0 6252.0
217.0 6294.0
224.0 6188.0
224.0 6218.0
224.0 6248.0
224.0 6279.0
224.0 6315.0
227.0 6189.0
227.0 6225.0
227.0 6265.0
227.0 6309.0
232.0 6185.0
232.0 6212.0
232.0 6241.0
232.0 6273.0
232.0 6309.0
235.0 6216.0
241.0 6184.0
241.0 6211.0
241.0 6239.0
241.0 6268.0
241.0 6302.0
258.0 6191.0
258.0 6227.0
258.0 6267.0
258.0 6309.0
259.0 6192.0
259.0 6228.0
259.0 6268.0
259.0 6316.0
286.0 6278.0
296.0 6210.0
296.0 6260.0
296.0 6320.0
303.0 6204.0
303.0 6251.0
303.0 6311.0
306.0 6254.0
328.0 6190.0
328.0 6225.0
328.0 6267.0
328.0 6307.0
334.0 6184.0
334.0 6214.0
334.0 6242.0
334.0 6275.0
334.0 6314.0
347.0 6040.0
347.0 6062.0
347.0 6083.0
347.0 6104.0
347.0 6129.0
347.0 6152.0
347.0 6173.0
347.0 6191.0
347.0 6207.0
347.0 6223.0
347.0 6239.0
347.0 6256.0
347.0 6272.0
347.0 6288.0
347.0 6306.0
347.0 6324.0
347.0 6344.0
347.0 6367.0
347.0 6389.0
366.0 6185.0
366.0 6212.0
366.0 6243.0
366.0 6272.0
366.0 6308.0
368.0 6233.0
377.0 6238.0
382.0 6195.0
382.0 6234.0
382.0 6276.0
382.0 6327.0
383.0 6199.0
428.0 6229.0
428.0 6300.0
434.0 6235.0
435.0 6211.0
435.0 6269.0
449.0 6217.0
450.0 6224.0
450.0 6280.0
456.0 6041.0
456.0 6063.0
456.0 6084.0
456.0 6105.0
456.0 6130.0
456.0 6153.0
456.0 6174.0
456.0 6196.0
456.0 6218.0
456.0 6239.0
456.0 6261.0
456.0 6283.0
456.0 6305.0
456.0 6328.0
456.0 6350.0
456.0 6372.0
456.0 6395.0
466.0 6192.0
466.0 6273.0
466.0 6352.0
468.0 6227.0
475.0 6191.0
478.0 6187.0
487.0 6193.0
487.0 6227.0
487.0 6267.0
487.0 6316.0
493.0 6214.0
504.0 6226.0
513.0 6219.0
558.0 6211.0
558.0 6268.0
580.0 6260.0
589.0 6205.0
591.0 6039.0
591.0 6059.0
591.0 6078.0
591.0 6097.0
591.0 6119.0
591.0 6142.0
591.0 6162.0
591.0 6182.0
591.0 6202.0
591.0 6222.0
591.0 6242.0
591.0 6263.0
591.0 6283.0
591.0 6303.0
591.0 6324.0
591.0 6345.0
591.0 6366.0
591.0 6387.0
599.0 6040.0
599.0 6061.0
599.0 6082.0
599.0 6102.0
599.0 6126.0
599.0 6149.0
599.0 6170.0
599.0 6188.0
599.0 6204.0
599.0 6221.0
599.0 6237.0
599.0 6253.0
599.0 6270.0
599.0 6287.0
599.0 6304.0
599.0 6320.0
599.0 6339.0
599.0 6361.0
599.0 6383.0
601.0 6191.0
605.0 6184.0
605.0 6210.0
605.0 6237.0
605.0 6268.0
605.0 6301.0
607.0 6211.0
607.0 6260.0
612.0 6186.0
612.0 6254.0
613.0 6194.0
615.0 6202.0
623.0 6189.0
623.0 6220.0
623.0 6253.0
623.0 6290.0
623.0 6329.0
625.0 6176.0
625.0 6250.0
625.0 6349.0
631.0 6233.0
632.0 6186.0
632.0 6213.0
632.0 6244.0
632.0 6277.0
632.0 6311.0
671.0 6077.0
677.0 6094.0
679.0 6101.0
680.0 6006.0
680.0 6010.0
680.0 6014.0
680.0 6017.0
680.0 6021.0
680.0 6024.0
680.0 6028.0
680.0 6031.0
680.0 6034.0
680.0 6037.0
680.0 6040.0
680.0 6043.0
680.0 6046.0
680.0 6049.0
680.0 6052.0
680.0 6055.0
680.0 6058.0
680.0 6061.0
680.0 6064.0
680.0 6067.0
680.0 6070.0
680.0 6073.0
680.0 6076.0
680.0 6079.0
680.0 6082.0
680.0 6085.0
680.0 6088.0
680.0 6091.0
680.0 6094.0
680.0 6097.0
680.0 6100.0
680.0 6104.0
680.0 6108.0
680.0 6112.0
680.0 6115.0
680.0 6119.0
680.0 6123.0
680.0 6126.0
680.0 6130.0
680.0 6134.0
680.0 6138.0
680.0 6142.0
680.0 6145.0
680.0 6149.0
680.0 6153.0
680.0 6157.0
680.0 6161.0
680.0 6165.0
680.0 6169.0
680.0 6173.0
680.0 6177.0
680.0 6181.0
680.0 6185.0
680.0 6189.0
680.0 6193.0
680.0 6197.0
680.0 6201.0
680.0 6205.0
680.0 6209.0
680.0 6213.0
680.0 6217.0
680.0 6221.0
680.0 6225.0
680.0 6229.0
680.0 6233.0
680.0 6237.0
680.0 6241.0
680.0 6245.0
680.0 6249.0
680.0 6253.0
680.0 6257.0
680.0 6261.0
680.0 6265.0
680.0 6269.0
680.0 6273.0
680.0 6277.0
680.0 6281.0
680.0 6285.0
680.0 6289.0
680.0 6293.0
680.0 6297.0
680.0 6301.0
680.0 6305.0
680.0 6309.0
680.0 6313.0
680.0 6317.0
680.0 6321.0
680.0 6325.0
680.0 6329.0
680.0 6333.0
680.0 6337.0
680.0 6341.0
680.0 6345.0
680.0 6349.0
680.0 6353.0
680.0 6357.0
680.0 6361.0
680.0 6365.0
680.0 6369.0
680.0 6373.0
680.0 6377.0
680.0 6381.0
680.0 6385.0
680.0 6389.0
680.0 6393.0
680.0 6398.0
696.0 6188.0
696.0 6222.0
696.0 6259.0
696.0 6297.0
696.0 6337.0
698.0 6097.0
708.0 6196.0
708.0 6232.0
708.0 6277.0
708.0 6329.0
709.0 6213.0
709.0 6262.0
714.0 6037.0
714.0 6054.0
714.0 6071.0
714.0 6088.0
714.0 6104.0
714.0 6122.0
714.0 6141.0
714.0 6160.0
714.0 6180.0
714.0 6200.0
714.0 6219.0
714.0 6240.0
714.0 6261.0
714.0 6281.0
714.0 6301.0
714.0 6322.0
714.0 6342.0
714.0 6362.0
714.0 6382.0
717.0 6096.0
718.0 6205.0
718.0 6262.0
718.0 6331.0
719.0 6095.0
719.0 6169.0
719.0 6337.0
725.0 6041.0
725.0 6060.0
725.0 6080.0
725.0 6100.0
725.0 6119.0
725.0 6138.0
725.0 6155.0
725.0 6172.0
725.0 6188.0
725.0 6203.0
725.0 6219.0
725.0 6235.0
725.0 6253.0
725.0 6271.0
725.0 6289.0
725.0 6305.0
725.0 6322.0
725.0 6338.0
725.0 6354.0
725.0 6372.0
725.0 6389.0
726.0 6177.0
726.0 6238.0
726.0 6377.0
729.0 6097.0
729.0 6205.0
729.0 6349.0
734.0 6116.0
734.0 6186.0
734.0 6215.0
734.0 6246.0
734.0 6277.0
734.0 6309.0
734.0 6367.0
735.0 6040.0
735.0 6060.0
735.0 6080.0
735.0 6099.0
735.0 6118.0
735.0 6137.0
735.0 6155.0
735.0 6172.0
735.0 6188.0
735.0 6203.0
735.0 6220.0
735.0 6237.0
735.0 6255.0
735.0 6273.0
735.0 6291.0
735.0 6308.0
735.0 6326.0
735.0 6343.0
735.0 6360.0
735.0 6377.0
735.0 6396.0
736.0 6040.0
736.0 6061.0
736.0 6082.0
736.0 6103.0
736.0 6125.0
736.0 6148.0
736.0 6168.0
736.0 6191.0
736.0 6211.0
736.0 6230.0
736.0 6251.0
736.0 6272.0
736.0 6294.0
736.0 6315.0
736.0 6336.0
736.0 6359.0
736.0 6380.0
738.0 6038.0
738.0 6056.0
738.0 6074.0
738.0 6092.0
738.0 6110.0
738.0 6131.0
738.0 6152.0
738.0 6174.0
738.0 6196.0
738.0 6217.0
738.0 6240.0
738.0 6263.0
738.0 6285.0
738.0 6307.0
738.0 6329.0
738.0 6351.0
738.0 6373.0
738.0 6395.0
743.0 6206.0
744.0 6185.0
744.0 6212.0
744.0 6244.0
744.0 6277.0
744.0 6317.0
745.0 6192.0
745.0 6226.0
745.0 6260.0
745.0 6299.0
751.0 6239.0
754.0 6203.0
762.0 6191.0
762.0 6252.0
762.0 6333.0
763.0 6007.0
763.0 6013.0
763.0 6018.0
763.0 6022.0
763.0 6026.0
763.0 6030.0
763.0 6034.0
763.0 6038.0
763.0 6042.0
763.0 6046.0
763.0 6050.0
763.0 6054.0
763.0 6058.0
763.0 6062.0
763.0 6066.0
763.0 6070.0
763.0 6074.0
763.0 6078.0
763.0 6082.0
763.0 6086.0
763.0 6090.0
763.0 6094.0
763.0 6098.0
763.0 6102.0
763.0 6106.0
763.0 6110.0
763.0 6114.0
763.0 6118.0
763.0 6121.0
763.0 6125.0
763.0 6129.0
763.0 6132.0
763.0 6136.0
763.0 6139.0
763.0 6142.0
763.0 6145.0
763.0 6148.0
763.0 6151.0
763.0 6154.0
763.0 6157.0
763.0 6160.0
763.0 6163.0
763.0 6166.0
763.0 6169.0
763.0 6172.0
763.0 6175.0
763.0 6178.0
763.0 6181.0
763.0 6184.0
763.0 6187.0
763.0 6190.0
763.0 6193.0
763.0 6196.0
763.0 6199.0
763.0 6202.0
763.0 6205.0
763.0 6208.0
763.0 6211.0
763.0 6214.0
763.0 6217.0
763.0 6220.0
763.0 6223.0
763.0 6226.0
763.0 6229.0
763.0 6232.0
763.0 6235.0
763.0 6239.0
763.0 6242.0
763.0 6245.0
763.0 6248.0
763.0 6251.0
763.0 6255.0
763.0 6258.0
763.0 6261.0
763.0 6264.0
763.0 6267.0
763.0 6271.0
763.0 6274.0
763.0 6277.0
763.0 6280.0
763.0 6283.0
763.0 6287.0
763.0 6290.0
763.0 6293.0
763.0 6296.0
763.0 6299.0
763.0 6303.0
763.0 6306.0
763.0 6309.0
763.0 6312.0
763.0 6315.0
763.0 6319.0
763.0 6322.0
763.0 6325.0
763.0 6328.0
763.0 6331.0
763.0 6335.0
763.0 6338.0
763.0 6341.0
763.0 6344.0
763.0 6347.0
763.0 6351.0
763.0 6354.0
763.0 6357.0
763.0 6360.0
763.0 6363.0
763.0 6366.0
763.0 6369.0
763.0 6372.0
763.0 6375.0
763.0 6379.0
763.0 6382.0
763.0 6385.0
763.0 6389.0
763.0 6392.0
763.0 6395.0
763.0 6399.0
801.0 6090.0
819.0 6161.0
819.0 6364.0
827.0 6075.0
837.0 6097.0
841.0 6041.0
841.0 6065.0
841.0 6090.0
841.0 6116.0
841.0 6145.0
841.0 6169.0
841.0 6196.0
841.0 6220.0
841.0 6245.0
841.0 6270.0
841.0 6296.0
841.0 6322.0
841.0 6348.0
841.0 6373.0
841.0 6399.0
842.0 6036.0
842.0 6055.0
842.0 6074.0
842.0 6093.0
842.0 6115.0
842.0 6137.0
842.0 6160.0
842.0 6184.0
842.0 6207.0
842.0 6232.0
842.0 6257.0
842.0 6281.0
842.0 6305.0
842.0 6330.0
842.0 6354.0
842.0 6378.0
843.0 6040.0
843.0 6062.0
843.0 6085.0
843.0 6108.0
843.0 6133.0
843.0 6156.0
843.0 6178.0
843.0 6198.0
843.0 6220.0
843.0 6240.0
843.0 6263.0
843.0 6284.0
843.0 6306.0
843.0 6328.0
843.0 6352.0
843.0 6375.0
843.0 6399.0
850.0 6109.0
850.0 6195.0
850.0 6306.0
851.0 6070.0
851.0 6115.0
851.0 6160.0
851.0 6202.0
851.0 6265.0
851.0 6331.0
851.0 6377.0
852.0 6037.0
852.0 6054.0
852.0 6071.0
852.0 6088.0
852.0 6105.0
852.0 6124.0
852.0 6143.0
852.0 6162.0
852.0 6181.0
852.0 6201.0
852.0 6221.0
852.0 6241.0
852.0 6262.0
852.0 6285.0
852.0 6306.0
852.0 6328.0
852.0 6348.0
852.0 6368.0
852.0 6388.0
857.0 6037.0
857.0 6053.0
857.0 6069.0
857.0 6085.0
857.0 6100.0
857.0 6116.0
857.0 6134.0
857.0 6152.0
857.0 6171.0
857.0 6189.0
857.0 6207.0
857.0 6226.0
857.0 6247.0
857.0 6267.0
857.0 6287.0
857.0 6305.0
857.0 6324.0
857.0 6343.0
857.0 6362.0
857.0 6381.0
857.0 6400.0
860.0 6039.0
860.0 6058.0
860.0 6076.0
860.0 6094.0
860.0 6114.0
860.0 6135.0
860.0 6155.0
860.0 6174.0
860.0 6193.0
860.0 6211.0
860.0 6230.0
860.0 6250.0
860.0 6269.0
860.0 6289.0
860.0 6310.0
860.0 6330.0
860.0 6350.0
860.0 6370.0
860.0 6390.0
861.0 6041.0
861.0 6064.0
861.0 6087.0
861.0 6110.0
861.0 6136.0
861.0 6159.0
861.0 6182.0
861.0 6203.0
861.0 6225.0
861.0 6247.0
861.0 6270.0
861.0 6294.0
861.0 6316.0
861.0 6339.0
861.0 6363.0
861.0 6387.0
863.0 6109.0
863.0 6203.0
863.0 6337.0
864.0 6181.0
864.0 6343.0
866.0 6029.0
866.0 6042.0
866.0 6054.0
866.0 6066.0
866.0 6077.0
866.0 6088.0
866.0 6100.0
866.0 6112.0
866.0 6124.0
866.0 6136.0
866.0 6148.0
866.0 6159.0
866.0 6171.0
866.0 6183.0
866.0 6195.0
866.0 6207.0
866.0 6219.0
866.0 6231.0
866.0 6243.0
866.0 6255.0
866.0 6267.0
866.0 6279.0
866.0 6291.0
866.0 6303.0
866.0 6315.0
866.0 6327.0
866.0 6339.0
866.0 6351.0
866.0 6363.0
866.0 6375.0
866.0 6387.0
866.0 6399.0
870.0 6185.0
870.0 6347.0
880.0 6042.0
880.0 6063.0
880.0 6084.0
880.0 6104.0
880.0 6124.0
880.0 6143.0
880.0 6160.0
880.0 6177.0
880.0 6194.0
880.0 6211.0
880.0 6229.0
880.0 6246.0
880.0 6264.0
880.0 6282.0
880.0 6300.0
880.0 6318.0
880.0 6335.0
880.0 6352.0
880.0 6369.0
880.0 6386.0
881.0 6204.0
883.0 6208.0
886.0 6203.0
889.0 6202.0
893.0 6228.0
894.0 6182.0
941.0 6037.0
941.0 6056.0
941.0 6075.0
941.0 6094.0
941.0 6114.0
941.0 6136.0
941.0 6158.0
941.0 6181.0
941.0 6205.0
941.0 6229.0
941.0 6254.0
941.0 6278.0
941.0 6302.0
941.0 6326.0
941.0 6349.0
941.0 6373.0
941.0 6396.0
949.0 6036.0
949.0 6053.0
949.0 6069.0
949.0 6085.0
949.0 6101.0
949.0 6119.0
949.0 6138.0
949.0 6157.0
949.0 6177.0
949.0 6197.0
949.0 6217.0
949.0 6238.0
949.0 6259.0
949.0 6279.0
949.0 6299.0
949.0 6319.0
949.0 6338.0
949.0 6358.0
949.0 6377.0
949.0 6397.0
950.0 6036.0
950.0 6054.0
950.0 6072.0
950.0 6090.0
950.0 6107.0
950.0 6127.0
950.0 6148.0
950.0 6170.0
950.0 6192.0
950.0 6212.0
950.0 6236.0
950.0 6261.0
950.0 6285.0
950.0 6308.0
950.0 6331.0
950.0 6352.0
950.0 6373.0
950.0 6396.0
951.0 6094.0
951.0 6168.0
951.0 6277.0
951.0 6357.0
953.0 6106.0
959.0 6036.0
959.0 6055.0
959.0 6073.0
959.0 6091.0
959.0 6109.0
959.0 6129.0
959.0 6151.0
959.0 6174.0
959.0 6197.0
959.0 6219.0
959.0 6242.0
959.0 6266.0
959.0 6290.0
959.0 6314.0
959.0 6336.0
959.0 6358.0
959.0 6381.0
960.0 6105.0
965.0 6118.0
965.0 6202.0
965.0 6336.0
973.0 6035.0
973.0 6052.0
973.0 6068.0
973.0 6085.0
973.0 6101.0
973.0 6119.0
973.0 6138.0
973.0 6158.0
973.0 6178.0
973.0 6197.0
973.0 6217.0
973.0 6238.0
973.0 6259.0
973.0 6280.0
973.0 6301.0
973.0 6322.0
973.0 6342.0
973.0 6361.0
973.0 6381.0
981.0 6100.0
983.0 6212.0
985.0 6090.0
985.0 6158.0
985.0 6215.0
985.0 6301.0
985.0 6374.0
989.0 6200.0
991.0 6036.0
991.0 6053.0
991.0 6069.0
991.0 6086.0
991.0 6102.0
991.0 6120.0
991.0 6139.0
991.0 6158.0
991.0 6178.0
991.0 6198.0
991.0 6220.0
991.0 6241.0
991.0 6262.0
991.0 6283.0
991.0 6303.0
991.0 6323.0
991.0 6343.0
991.0 6362.0
991.0 6383.0
992.0 6208.0
994.0 6198.0
997.0 6112.0
998.0 6103.0
1001.0 6040.0
1001.0 6062.0
1001.0 6084.0
1001.0 6104.0
1001.0 6125.0
1001.0 6145.0
1001.0 6163.0
1001.0 6181.0
1001.0 6199.0
1001.0 6216.0
1001.0 6234.0
1001.0 6253.0
1001.0 6272.0
1001.0 6292.0
1001.0 6311.0
1001.0 6330.0
1001.0 6348.0
1001.0 6365.0
1001.0 6383.0
1012.0 6038.0
1012.0 6059.0
1012.0 6080.0
1012.0 6101.0
1012.0 6122.0
1012.0 6141.0
1012.0 6158.0
1012.0 6175.0
1012.0 6192.0
1012.0 6208.0
1012.0 6225.0
1012.0 6242.0
1012.0 6261.0
1012.0 6280.0
1012.0 6298.0
1012.0 6317.0
1012.0 6335.0
1012.0 6353.0
1012.0 6370.0
1012.0 6387.0
1014.0 6169.0
1014.0 6233.0
1014.0 6376.0
1016.0 6042.0
1016.0 6065.0
1016.0 6088.0
1016.0 6111.0
1016.0 6133.0
1016.0 6153.0
1016.0 6172.0
1016.0 6191.0
1016.0 6209.0
1016.0 6228.0
1016.0 6248.0
1016.0 6268.0
1016.0 6288.0
1016.0 6307.0
1016.0 6327.0
1016.0 6346.0
1016.0 6366.0
1016.0 6385.0
1018.0 6188.0
1018.0 6373.0
1021.0 6213.0
1022.0 6202.0
1031.0 6192.0
1038.0 6040.0
1038.0 6061.0
1038.0 6081.0
1038.0 6101.0
1038.0 6121.0
1038.0 6140.0
1038.0 6157.0
1038.0 6174.0
1038.0 6191.0
1038.0 6207.0
1038.0 6224.0
1038.0 6242.0
1038.0 6261.0
1038.0 6280.0
1038.0 6298.0
1038.0 6316.0
1038.0 6334.0
1038.0 6352.0
1038.0 6369.0
1038.0 6387.0
1068.0 6036.0
1068.0 6054.0
1068.0 6071.0
1068.0 6088.0
1068.0 6106.0
1068.0 6126.0
1068.0 6147.0
1068.0 6168.0
1068.0 6189.0
1068.0 6209.0
1068.0 6231.0
1068.0 6253.0
1068.0 6276.0
1068.0 6297.0
1068.0 6319.0
1068.0 6340.0
1068.0 6361.0
1068.0 6382.0
1075.0 6037.0
1075.0 6056.0
1075.0 6074.0
1075.0 6092.0
1075.0 6110.0
1075.0 6130.0
1075.0 6151.0
1075.0 6173.0
1075.0 6195.0
1075.0 6217.0
1075.0 6241.0
1075.0 6265.0
1075.0 6288.0
1075.0 6310.0
1075.0 6333.0
1075.0 6355.0
1075.0 6377.0
1075.0 6399.0
1084.0 6096.0
1087.0 6037.0
1087.0 6055.0
1087.0 6073.0
1087.0 6091.0
1087.0 6110.0
1087.0 6130.0
1087.0 6150.0
1087.0 6171.0
1087.0 6192.0
1087.0 6213.0
1087.0 6236.0
1087.0 6259.0
1087.0 6281.0
1087.0 6303.0
1087.0 6325.0
1087.0 6346.0
1087.0 6368.0
1087.0 6390.0
1088.0 6036.0
1088.0 6055.0
1088.0 6073.0
1088.0 6091.0
1088.0 6109.0
1088.0 6129.0
1088.0 6150.0
1088.0 6172.0
1088.0 6195.0
1088.0 6216.0
1088.0 6240.0
1088.0 6264.0
1088.0 6288.0
1088.0 6310.0
1088.0 6333.0
1088.0 6355.0
1088.0 6377.0
1105.0 6035.0
1105.0 6051.0
1105.0 6067.0
1105.0 6083.0
1105.0 6099.0
1105.0 6115.0
1105.0 6133.0
1105.0 6151.0
1105.0 6170.0
1105.0 6188.0
1105.0 6206.0
1105.0 6226.0
1105.0 6246.0
1105.0 6266.0
1105.0 6286.0
1105.0 6305.0
1105.0 6324.0
1105.0 6342.0
1105.0 6361.0
1105.0 6380.0
1105.0 6399.0
1114.0 6036.0
1114.0 6053.0
1114.0 6070.0
1114.0 6087.0
1114.0 6104.0
1114.0 6124.0
1114.0 6144.0
1114.0 6163.0
1114.0 6183.0
1114.0 6204.0
1114.0 6224.0
1114.0 6246.0
1114.0 6268.0
1114.0 6290.0
1114.0 6311.0
1114.0 6331.0
1114.0 6352.0
1114.0 6373.0
1114.0 6394.0
1115.0 6091.0
1115.0 6172.0
1115.0 6334.0
1118.0 6036.0
1118.0 6054.0
1118.0 6072.0
1118.0 6090.0
1118.0 6108.0
1118.0 6128.0
1118.0 6150.0
1118.0 6171.0
1118.0 6194.0
1118.0 6215.0
1118.0 6238.0
1118.0 6261.0
1118.0 6283.0
1118.0 6305.0
1118.0 6327.0
1118.0 6348.0
1118.0 6370.0
1118.0 6392.0
1134.0 6186.0
1134.0 6241.0
1134.0 6365.0
1135.0 6037.0
1135.0 6056.0
1135.0 6074.0
1135.0 6092.0
1135.0 6112.0
1135.0 6133.0
1135.0 6155.0
1135.0 6178.0
1135.0 6201.0
1135.0 6225.0
1135.0 6250.0
1135.0 6275.0
1135.0 6299.0
1135.0 6323.0
1135.0 6346.0
1135.0 6369.0
1135.0 6392.0
1136.0 6206.0
1148.0 6184.0
1156.0 6039.0
1156.0 6061.0
1156.0 6083.0
1156.0 6104.0
1156.0 6125.0
1156.0 6145.0
1156.0 6163.0
1156.0 6180.0
1156.0 6197.0
1156.0 6214.0
1156.0 6232.0
1156.0 6251.0
1156.0 6270.0
1156.0 6289.0
1156.0 6307.0
1156.0 6326.0
1156.0 6344.0
1156.0 6362.0
1156.0 6379.0
1156.0 6397.0
1165.0 6040.0
1165.0 6062.0
1165.0 6084.0
1165.0 6106.0
1165.0 6128.0
1165.0 6148.0
1165.0 6166.0
1165.0 6184.0
1165.0 6202.0
1165.0 6220.0
1165.0 6239.0
1165.0 6259.0
1165.0 6278.0
1165.0 6297.0
1165.0 6316.0
1165.0 6334.0
1165.0 6353.0
1165.0 6372.0
1165.0 6392.0
1172.0 6039.0
1172.0 6060.0
1172.0 6081.0
1172.0 6102.0
1172.0 6123.0
1172.0 6143.0
1172.0 6161.0
1172.0 6178.0
1172.0 6195.0
1172.0 6212.0
1172.0 6230.0
1172.0 6248.0
1172.0 6267.0
1172.0 6285.0
1172.0 6303.0
1172.0 6322.0
1172.0 6340.0
1172.0 6358.0
1172.0 6375.0
1172.0 6393.0
1174.0 6130.0
1174.0 6216.0
1174.0 6340.0
1204.0 6037.0
1204.0 6055.0
1204.0 6073.0
1204.0 6091.0
1204.0 6109.0
1204.0 6129.0
1204.0 6150.0
1204.0 6171.0
1204.0 6193.0
1204.0 6215.0
1204.0 6239.0
1204.0 6262.0
1204.0 6285.0
1204.0 6307.0
1204.0 6330.0
1204.0 6352.0
1204.0 6373.0
1204.0 6395.0
1205.0 6099.0
1213.0 6113.0
1222.0 6037.0
1222.0 6055.0
1222.0 6072.0
1222.0 6089.0
1222.0 6106.0
1222.0 6125.0
1222.0 6145.0
1222.0 6165.0
1222.0 6185.0
1222.0 6204.0
1222.0 6226.0
1222.0 6247.0
1222.0 6268.0
1222.0 6289.0
1222.0 6309.0
1222.0 6329.0
1222.0 6349.0
1222.0 6369.0
1222.0 6389.0
1225.0 6092.0
1225.0 6164.0
1225.0 6332.0
1226.0 6035.0
1226.0 6052.0
1226.0 6069.0
1226.0 6086.0
1226.0 6102.0
1226.0 6120.0
1226.0 6139.0
1226.0 6158.0
1226.0 6177.0
1226.0 6196.0
1226.0 6215.0
1226.0 6235.0
1226.0 6255.0
1226.0 6275.0
1226.0 6296.0
1226.0 6317.0
1226.0 6336.0
1226.0 6355.0
1226.0 6374.0
1226.0 6394.0
1236.0 6111.0
1236.0 6213.0
1241.0 6093.0
1241.0 6177.0
1241.0 6393.0
1243.0 6104.0
1243.0 6179.0
1243.0 6273.0
1243.0 6349.0
1251.0 6039.0
1251.0 6060.0
1251.0 6081.0
1251.0 6101.0
1251.0 6121.0
1251.0 6140.0
1251.0 6157.0
1251.0 6174.0
1251.0 6191.0
1251.0 6208.0
1251.0 6225.0
1251.0 6241.0
1251.0 6259.0
1251.0 6277.0
1251.0 6296.0
1251.0 6314.0
1251.0 6332.0
1251.0 6350.0
1251.0 6368.0
1251.0 6385.0
1252.0 6203.0
1253.0 6040.0
1253.0 6063.0
1253.0 6087.0
1253.0 6111.0
1253.0 6134.0
1253.0 6154.0
1253.0 6173.0
1253.0 6192.0
1253.0 6211.0
1253.0 6231.0
1253.0 6251.0
1253.0 6272.0
1253.0 6292.0
1253.0 6313.0
1253.0 6332.0
1253.0 6352.0
1253.0 6371.0
1253.0 6391.0
1254.0 6036.0
1254.0 6054.0
1254.0 6072.0
1254.0 6090.0
1254.0 6107.0
1254.0 6126.0
1254.0 6147.0
1254.0 6167.0
1254.0 6188.0
1254.0 6209.0
1254.0 6230.0
1254.0 6253.0
1254.0 6275.0
1254.0 6297.0
1254.0 6319.0
1254.0 6340.0
1254.0 6361.0
1254.0 6382.0
1257.0 6116.0
1257.0 6195.0
1257.0 6380.0
1262.0 6186.0
1263.0 6106.0
1271.0 6222.0
1300.0 6208.0
1305.0 6211.0
1337.0 6035.0
1337.0 6052.0
1337.0 6070.0
1337.0 6088.0
1337.0 6105.0
1337.0 6125.0
1337.0 6145.0
1337.0 6166.0
1337.0 6187.0
1337.0 6208.0
1337.0 6230.0
1337.0 6252.0
1337.0 6275.0
1337.0 6297.0
1337.0 6319.0
1337.0 6340.0
1337.0 6361.0
1337.0 6382.0
1340.0 6036.0
1340.0 6054.0
1340.0 6071.0
1340.0 6088.0
1340.0 6105.0
1340.0 6124.0
1340.0 6144.0
1340.0 6164.0
1340.0 6183.0
1340.0 6204.0
1340.0 6226.0
1340.0 6248.0
1340.0 6270.0
1340.0 6291.0
1340.0 6313.0
1340.0 6334.0
1340.0 6354.0
1340.0 6375.0
1340.0 6395.0
1345.0 6036.0
1345.0 6054.0
1345.0 6072.0
1345.0 6090.0
1345.0 6108.0
1345.0 6129.0
1345.0 6150.0
1345.0 6172.0
1345.0 6195.0
1345.0 6219.0
1345.0 6242.0
1345.0 6265.0
1345.0 6288.0
1345.0 6311.0
1345.0 6333.0
1345.0 6355.0
1345.0 6377.0
1345.0 6400.0
1355.0 6088.0
1355.0 6151.0
1355.0 6204.0
1355.0 6299.0
1355.0 6369.0
1388.0 6106.0
1390.0 6040.0
1390.0 6061.0
1390.0 6082.0
1390.0 6102.0
1390.0 6122.0
1390.0 6142.0
1390.0 6159.0
1390.0 6176.0
1390.0 6193.0
1390.0 6210.0
1390.0 6227.0
1390.0 6245.0
1390.0 6264.0
1390.0 6283.0
1390.0 6301.0
1390.0 6319.0
1390.0 6337.0
1390.0 6354.0
1390.0 6372.0
1390.0 6389.0
1404.0 6041.0
1404.0 6063.0
1404.0 6085.0
1404.0 6106.0
1404.0 6127.0
1404.0 6147.0
1404.0 6165.0
1404.0 6183.0
1404.0 6201.0
1404.0 6218.0
1404.0 6236.0
1404.0 6255.0
1404.0 6274.0
1404.0 6293.0
1404.0 6312.0
1404.0 6331.0
1404.0 6349.0
1404.0 6367.0
1404.0 6385.0
1415.0 6183.0
1415.0 6381.0
1417.0 6037.0
1417.0 6056.0
1417.0 6075.0
1417.0 6094.0
1417.0 6114.0
1417.0 6136.0
1417.0 6159.0
1417.0 6183.0
1417.0 6207.0
1417.0 6232.0
1417.0 6257.0
1417.0 6283.0
1417.0 6307.0
1417.0 6331.0
1417.0 6355.0
1417.0 6379.0
1418.0 6037.0
1418.0 6055.0
1418.0 6073.0
1418.0 6091.0
1418.0 6110.0
1418.0 6131.0
1418.0 6152.0
1418.0 6173.0
1418.0 6195.0
1418.0 6216.0
1418.0 6239.0
1418.0 6263.0
1418.0 6287.0
1418.0 6309.0
1418.0 6332.0
1418.0 6354.0
1418.0 6376.0
1418.0 6399.0
1419.0 6094.0
1419.0 6210.0
1419.0 6351.0
1423.0 6036.0
1423.0 6054.0
1423.0 6071.0
1423.0 6088.0
1423.0 6106.0
1423.0 6126.0
1423.0 6147.0
1423.0 6168.0
1423.0 6190.0
1423.0 6211.0
1423.0 6234.0
1423.0 6257.0
1423.0 6280.0
1423.0 6302.0
1423.0 6324.0
1423.0 6346.0
1423.0 6367.0
1423.0 6388.0
1433.0 6096.0
1433.0 6178.0
1433.0 6342.0
1434.0 6188.0
1434.0 6356.0
1436.0 6173.0
1439.0 6169.0
1439.0 6380.0
1442.0 6006.0
1442.0 6010.0
1442.0 6014.0
1442.0 6017.0
1442.0 6021.0
1442.0 6024.0
1442.0 6028.0
1442.0 6031.0
1442.0 6034.0
1442.0 6037.0
1442.0 6040.0
1442.0 6043.0
1442.0 6046.0
1442.0 6049.0
1442.0 6052.0
1442.0 6055.0
1442.0 6058.0
1442.0 6061.0
1442.0 6064.0
1442.0 6067.0
1442.0 6070.0
1442.0 6073.0
1442.0 6076.0
1442.0 6079.0
1442.0 6082.0
1442.0 6085.0
1442.0 6088.0
1442.0 6091.0
1442.0 6094.0
1442.0 6097.0
1442.0 6100.0
1442.0 6103.0
1442.0 6106.0
1442.0 6109.0
1442.0 6112.0
1442.0 6115.0
1442.0 6118.0
1442.0 6121.0
1442.0 6124.0
1442.0 6127.0
1442.0 6130.0
1442.0 6133.0
1442.0 6136.0
1442.0 6139.0
1442.0 6142.0
1442.0 6145.0
1442.0 6148.0
1442.0 6151.0
1442.0 6154.0
1442.0 6157.0
1442.0 6160.0
1442.0 6163.0
1442.0 6166.0
1442.0 6169.0
1442.0 6172.0
1442.0 6175.0
1442.0 6178.0
1442.0 6181.0
1442.0 6184.0
1442.0 6187.0
1442.0 6190.0
1442.0 6193.0
1442.0 6196.0
1442.0 6199.0
1442.0 6202.0
1442.0 6205.0
1442.0 6208.0
1442.0 6211.0
1442.0 6215.0
1442.0 6218.0
1442.0 6221.0
1442.0 6224.0
1442.0 6227.0
1442.0 6231.0
1442.0 6234.0
1442.0 6237.0
1442.0 6240.0
1442.0 6243.0
1442.0 6247.0
1442.0 6250.0
1442.0 6253.0
1442.0 6256.0
1442.0 6259.0
1442.0 6263.0
1442.0 6266.0
1442.0 6269.0
1442.0 6272.0
1442.0 6275.0
1442.0 6279.0
1442.0 6282.0
1442.0 6285.0
1442.0 6288.0
1442.0 6291.0
1442.0 6294.0
1442.0 6297.0
1442.0 6300.0
1442.0 6303.0
1442.0 6307.0
1442.0 6310.0
1442.0 6313.0
1442.0 6316.0
1442.0 6319.0
1442.0 6322.0
1442.0 6325.0
1442.0 6328.0
1442.0 6331.0
1442.0 6334.0
1442.0 6337.0
1442.0 6340.0
1442.0 6343.0
1442.0 6346.0
1442.0 6349.0
1442.0 6352.0
1442.0 6355.0
1442.0 6358.0
1442.0 6361.0
1442.0 6364.0
1442.0 6367.0
1442.0 6370.0
1442.0 6373.0
1442.0 6376.0
1442.0 6379.0
1442.0 6382.0
1442.0 6385.0
1442.0 6388.0
1442.0 6391.0
1442.0 6394.0
1442.0 6397.0
1445.0 6099.0
1445.0 6215.0
1446.0 6097.0
1446.0 6208.0
1446.0 6358.0
