763.0 6606.0
1442.0 6606.0
680.0 6607.0
763.0 6609.0
1442.0 6609.0
680.0 6612.0
763.0 6612.0
1442.0 6612.0
763.0 6615.0
1442.0 6615.0
680.0 6616.0
763.0 6618.0
1442.0 6618.0
680.0 6620.0
763.0 6621.0
1442.0 6621.0
680.0 6624.0
763.0 6624.0
1442.0 6624.0
866.0 6626.0
763.0 6627.0
1442.0 6627.0
680.0 6628.0
1012.0 6629.0
763.0 6630.0
1156.0 6630.0
1165.0 6630.0
1172.0 6630.0
1251.0 6630.0
1253.0 6630.0
1390.0 6630.0
1442.0 6630.0
735.0 6631.0
1001.0 6631.0
1038.0 6631.0
680.0 6632.0
1016.0 6632.0
1404.0 6632.0
725.0 6633.0
763.0 6633.0
880.0 6633.0
1442.0 6633.0
736.0 6634.0
860.0 6634.0
973.0 6634.0
1105.0 6634.0
1340.0 6634.0
591.0 6635.0
950.0 6635.0
991.0 6635.0
1114.0 6635.0
1226.0 6635.0
1254.0 6635.0
1337.0 6635.0
1345.0 6635.0
1423.0 6635.0
347.0 6636.0
599.0 6636.0
680.0 6636.0
714.0 6636.0
763.0 6636.0
841.0 6636.0
842.0 6636.0
843.0 6636.0
852.0 6636.0
857.0 6636.0
861.0 6636.0
941.0 6636.0
949.0 6636.0
1068.0 6636.0
1075.0 6636.0
1087.0 6636.0
1088.0 6636.0
1118.0 6636.0
1135.0 6636.0
1222.0 6636.0
1418.0 6636.0
1442.0 6636.0
456.0 6637.0
959.0 6637.0
1204.0 6637.0
1417.0 6637.0
738.0 6638.0
866.0 6638.0
763.0 6639.0
1442.0 6639.0
680.0 6640.0
763.0 6642.0
1442.0 6642.0
680.0 6644.0
763.0 6645.0
1442.0 6645.0
1012.0 6646.0
735.0 6647.0
1172.0 6647.0
1251.0 6647.0
1390.0 6647.0
680.0 6648.0
763.0 6648.0
1038.0 6648.0
1156.0 6648.0
1165.0 6648.0
1253.0 6648.0
1442.0 6648.0
725.0 6649.0
1001.0 6649.0
866.0 6650.0
880.0 6650.0
1404.0 6650.0
763.0 6651.0
1016.0 6651.0
1442.0 6651.0
680.0 6652.0
860.0 6653.0
1105.0 6653.0
736.0 6654.0
763.0 6654.0
973.0 6654.0
1340.0 6654.0
1442.0 6654.0
591.0 6655.0
857.0 6655.0
991.0 6655.0
1226.0 6655.0
680.0 6656.0
714.0 6656.0
852.0 6656.0
949.0 6656.0
1114.0 6656.0
1337.0 6656.0
599.0 6657.0
763.0 6657.0
950.0 6657.0
1068.0 6657.0
1222.0 6657.0
1254.0 6657.0
1345.0 6657.0
1423.0 6657.0
1442.0 6657.0
347.0 6658.0
456.0 6658.0
843.0 6658.0
861.0 6658.0
1075.0 6658.0
1087.0 6658.0
1088.0 6658.0
1118.0 6658.0
1418.0 6658.0
842.0 6659.0
941.0 6659.0
1135.0 6659.0
1204.0 6659.0
680.0 6660.0
738.0 6660.0
763.0 6660.0
841.0 6660.0
959.0 6660.0
1442.0 6660.0
1417.0 6661.0
866.0 6662.0
735.0 6663.0
763.0 6663.0
851.0 6663.0
1012.0 6663.0
1442.0 6663.0
680.0 6664.0
1172.0 6664.0
1251.0 6664.0
1390.0 6664.0
725.0 6665.0
1038.0 6665.0
763.0 6666.0
1156.0 6666.0
1165.0 6666.0
1253.0 6666.0
1442.0 6666.0
880.0 6667.0
1001.0 6667.0
680.0 6668.0
1404.0 6668.0
763.0 6669.0
1442.0 6669.0
1016.0 6670.0
1105.0 6671.0
680.0 6672.0
763.0 6672.0
860.0 6672.0
1355.0 6672.0
1442.0 6672.0
857.0 6674.0
866.0 6674.0
973.0 6674.0
591.0 6675.0
736.0 6675.0
763.0 6675.0
991.0 6675.0
1226.0 6675.0
1340.0 6675.0
1442.0 6675.0
680.0 6676.0
714.0 6676.0
852.0 6676.0
894.0 6676.0
949.0 6676.0
1114.0 6677.0
1337.0 6677.0
599.0 6678.0
763.0 6678.0
1068.0 6678.0
1222.0 6678.0
1254.0 6678.0
1423.0 6678.0
1442.0 6678.0
347.0 6679.0
456.0 6679.0
950.0 6679.0
1014.0 6679.0
1345.0 6679.0
680.0 6680.0
735.0 6680.0
843.0 6680.0
1012.0 6680.0
1075.0 6680.0
1087.0 6680.0
1088.0 6680.0
1418.0 6680.0
725.0 6681.0
763.0 6681.0
861.0 6681.0
1118.0 6681.0
1172.0 6681.0
1204.0 6681.0
1251.0 6681.0
1390.0 6681.0
1442.0 6681.0
738.0 6682.0
941.0 6682.0
1038.0 6682.0
1135.0 6682.0
625.0 6683.0
842.0 6683.0
959.0 6683.0
1156.0 6683.0
680.0 6684.0
763.0 6684.0
841.0 6684.0
870.0 6684.0
880.0 6684.0
1165.0 6684.0
1442.0 6684.0
985.0 6685.0
1001.0 6685.0
1018.0 6685.0
1253.0 6685.0
1417.0 6685.0
866.0 6686.0
951.0 6686.0
1404.0 6686.0
763.0 6687.0
1115.0 6687.0
1442.0 6687.0
680.0 6688.0
612.0 6689.0
1016.0 6689.0
1105.0 6689.0
1134.0 6689.0
763.0 6690.0
1442.0 6690.0
860.0 6691.0
680.0 6692.0
1133.0 6692.0
726.0 6693.0
763.0 6693.0
857.0 6693.0
1243.0 6693.0
1442.0 6693.0
973.0 6694.0
991.0 6694.0
1226.0 6694.0
1257.0 6694.0
591.0 6695.0
680.0 6696.0
714.0 6696.0
735.0 6696.0
763.0 6696.0
852.0 6696.0
949.0 6696.0
1340.0 6696.0
1442.0 6696.0
725.0 6697.0
736.0 6697.0
1012.0 6697.0
599.0 6698.0
866.0 6698.0
1172.0 6698.0
1251.0 6698.0
1262.0 6698.0
1337.0 6698.0
1390.0 6698.0
763.0 6699.0
1038.0 6699.0
1068.0 6699.0
1114.0 6699.0
1222.0 6699.0
1254.0 6699.0
1423.0 6699.0
1442.0 6699.0
347.0 6700.0
456.0 6700.0
680.0 6700.0
1156.0 6700.0
880.0 6701.0
1345.0 6701.0
763.0 6702.0
843.0 6702.0
863.0 6702.0
950.0 6702.0
989.0 6702.0
1075.0 6702.0
1087.0 6702.0
1418.0 6702.0
1442.0 6702.0
861.0 6703.0
864.0 6703.0
886.0 6703.0
1001.0 6703.0
1088.0 6703.0
1165.0 6703.0
1204.0 6703.0
1404.0 6703.0
680.0 6704.0
738.0 6704.0
1118.0 6704.0
1135.0 6704.0
1253.0 6704.0
1433.0 6704.0
478.0 6705.0
763.0 6705.0
889.0 6705.0
941.0 6705.0
1148.0 6705.0
1442.0 6705.0
1446.0 6705.0
959.0 6706.0
632.0 6707.0
842.0 6707.0
965.0 6707.0
1022.0 6707.0
1031.0 6707.0
1241.0 6707.0
1436.0 6707.0
241.0 6708.0
680.0 6708.0
719.0 6708.0
744.0 6708.0
763.0 6708.0
841.0 6708.0
881.0 6708.0
1016.0 6708.0
1105.0 6708.0
1225.0 6708.0
1442.0 6708.0
762.0 6709.0
1236.0 6709.0
1417.0 6709.0
466.0 6710.0
851.0 6710.0
860.0 6710.0
866.0 6710.0
893.0 6710.0
994.0 6710.0
1419.0 6710.0
334.0 6711.0
589.0 6711.0
605.0 6711.0
763.0 6711.0
857.0 6711.0
1300.0 6711.0
1305.0 6711.0
1442.0 6711.0
475.0 6712.0
613.0 6712.0
680.0 6712.0
735.0 6712.0
1174.0 6712.0
725.0 6713.0
1226.0 6713.0
763.0 6714.0
973.0 6714.0
991.0 6714.0
1012.0 6714.0
1172.0 6714.0
1251.0 6714.0
1390.0 6714.0
1442.0 6714.0
714.0 6715.0
1038.0 6715.0
1434.0 6715.0
591.0 6716.0
680.0 6716.0
852.0 6716.0
949.0 6716.0
763.0 6717.0
1156.0 6717.0
1340.0 6717.0
1442.0 6717.0
599.0 6718.0
601.0 6718.0
736.0 6718.0
880.0 6718.0
1252.0 6718.0
1445.0 6718.0
1222.0 6719.0
680.0 6720.0
763.0 6720.0
1001.0 6720.0
1068.0 6720.0
1254.0 6720.0
1337.0 6720.0
1404.0 6720.0
1423.0 6720.0
1442.0 6720.0
347.0 6721.0
456.0 6721.0
866.0 6721.0
1114.0 6721.0
850.0 6722.0
950.0 6722.0
1165.0 6722.0
449.0 6723.0
734.0 6723.0
763.0 6723.0
843.0 6723.0
883.0 6723.0
1087.0 6723.0
1253.0 6723.0
1442.0 6723.0
680.0 6724.0
754.0 6724.0
819.0 6724.0
1075.0 6724.0
1345.0 6724.0
1418.0 6724.0
861.0 6725.0
1088.0 6725.0
1204.0 6725.0
1355.0 6725.0
232.0 6726.0
738.0 6726.0
763.0 6726.0
1016.0 6726.0
1105.0 6726.0
1118.0 6726.0
1442.0 6726.0
1135.0 6727.0
366.0 6728.0
680.0 6728.0
735.0 6729.0
763.0 6729.0
860.0 6729.0
941.0 6729.0
959.0 6729.0
1271.0 6729.0
1442.0 6729.0
725.0 6730.0
729.0 6730.0
857.0 6730.0
1012.0 6730.0
1251.0 6730.0
235.0 6731.0
842.0 6731.0
1172.0 6731.0
1390.0 6731.0
1415.0 6731.0
383.0 6732.0
680.0 6732.0
763.0 6732.0
841.0 6732.0
1038.0 6732.0
1226.0 6732.0
1417.0 6732.0
1442.0 6732.0
866.0 6733.0
973.0 6733.0
991.0 6734.0
1156.0 6734.0
714.0 6735.0
763.0 6735.0
880.0 6735.0
949.0 6735.0
1442.0 6735.0
591.0 6736.0
680.0 6736.0
852.0 6736.0
1014.0 6736.0
1001.0 6737.0
1340.0 6737.0
736.0 6738.0
763.0 6738.0
1404.0 6738.0
1442.0 6738.0
599.0 6739.0
894.0 6739.0
1222.0 6739.0
1254.0 6739.0
680.0 6740.0
903.0 6740.0
1165.0 6740.0
763.0 6741.0
1068.0 6741.0
1114.0 6741.0
1337.0 6741.0
1442.0 6741.0
347.0 6742.0
456.0 6742.0
1253.0 6742.0
1423.0 6742.0
950.0 6743.0
680.0 6744.0
763.0 6744.0
866.0 6744.0
1087.0 6744.0
1442.0 6744.0
843.0 6745.0
985.0 6745.0
1016.0 6745.0
1105.0 6745.0
725.0 6746.0
735.0 6746.0
861.0 6746.0
1075.0 6746.0
1204.0 6746.0
1345.0 6746.0
1418.0 6746.0
763.0 6747.0
1012.0 6747.0
1088.0 6747.0
1251.0 6747.0
1442.0 6747.0
680.0 6748.0
738.0 6748.0
860.0 6748.0
1038.0 6748.0
1118.0 6748.0
1172.0 6748.0
1390.0 6748.0
857.0 6749.0
763.0 6750.0
870.0 6750.0
1135.0 6750.0
1442.0 6750.0
625.0 6751.0
941.0 6751.0
959.0 6751.0
1156.0 6751.0
680.0 6752.0
880.0 6752.0
1226.0 6752.0
612.0 6753.0
763.0 6753.0
973.0 6753.0
1442.0 6753.0
851.0 6754.0
949.0 6754.0
991.0 6754.0
1001.0 6754.0
714.0 6755.0
842.0 6755.0
866.0 6755.0
1417.0 6755.0
591.0 6756.0
680.0 6756.0
763.0 6756.0
841.0 6756.0
852.0 6756.0
1404.0 6756.0
1442.0 6756.0
726.0 6758.0
951.0 6758.0
1134.0 6758.0
1165.0 6758.0
1340.0 6758.0
736.0 6759.0
763.0 6759.0
1254.0 6759.0
1442.0 6759.0
599.0 6760.0
680.0 6760.0
1222.0 6760.0
1253.0 6761.0
725.0 6762.0
763.0 6762.0
1068.0 6762.0
1114.0 6762.0
1225.0 6762.0
1337.0 6762.0
1442.0 6762.0
347.0 6763.0
456.0 6763.0
735.0 6763.0
1105.0 6763.0
1423.0 6763.0
680.0 6764.0
1016.0 6764.0
1251.0 6764.0
763.0 6765.0
1012.0 6765.0
1038.0 6765.0
1087.0 6765.0
1172.0 6765.0
1390.0 6765.0
1442.0 6765.0
950.0 6766.0
1018.0 6766.0
857.0 6767.0
860.0 6767.0
866.0 6767.0
1418.0 6767.0
680.0 6768.0
763.0 6768.0
843.0 6768.0
1075.0 6768.0
1156.0 6768.0
1204.0 6768.0
1442.0 6768.0
861.0 6769.0
880.0 6769.0
1345.0 6769.0
738.0 6770.0
1088.0 6770.0
1118.0 6770.0
763.0 6771.0
1115.0 6771.0
1442.0 6771.0
680.0 6772.0
1001.0 6772.0
1226.0 6772.0
973.0 6773.0
1135.0 6773.0
763.0 6774.0
941.0 6774.0
949.0 6774.0
959.0 6774.0
991.0 6774.0
1243.0 6774.0
1404.0 6774.0
1442.0 6774.0
714.0 6775.0
852.0 6775.0
1257.0 6775.0
591.0 6776.0
680.0 6776.0
763.0 6777.0
1165.0 6777.0
1442.0 6777.0
725.0 6778.0
1148.0 6778.0
1340.0 6778.0
1417.0 6778.0
735.0 6779.0
842.0 6779.0
866.0 6779.0
1262.0 6779.0
680.0 6780.0
719.0 6780.0
736.0 6780.0
763.0 6780.0
841.0 6780.0
1253.0 6780.0
1254.0 6780.0
1439.0 6780.0
1442.0 6780.0
599.0 6781.0
886.0 6781.0
1222.0 6781.0
1251.0 6781.0
1012.0 6782.0
1038.0 6782.0
1105.0 6782.0
1172.0 6782.0
1390.0 6782.0
763.0 6783.0
1016.0 6783.0
1068.0 6783.0
1114.0 6783.0
1337.0 6783.0
1442.0 6783.0
347.0 6784.0
456.0 6784.0
680.0 6784.0
1423.0 6784.0
1156.0 6785.0
478.0 6786.0
763.0 6786.0
857.0 6786.0
860.0 6786.0
863.0 6786.0
880.0 6786.0
989.0 6786.0
1087.0 6786.0
1241.0 6786.0
1355.0 6786.0
1442.0 6786.0
1446.0 6786.0
680.0 6788.0
950.0 6788.0
1144.0 6788.0
744.0 6789.0
763.0 6789.0
889.0 6789.0
1442.0 6789.0
475.0 6790.0
843.0 6790.0
1001.0 6790.0
1075.0 6790.0
1204.0 6790.0
1418.0 6790.0
861.0 6791.0
866.0 6791.0
1022.0 6791.0
1236.0 6791.0
1345.0 6791.0
1404.0 6791.0
680.0 6792.0
738.0 6792.0
763.0 6792.0
1088.0 6792.0
1174.0 6792.0
1226.0 6792.0
1442.0 6792.0
241.0 6793.0
725.0 6793.0
949.0 6793.0
973.0 6793.0
1118.0 6793.0
1436.0 6793.0
735.0 6794.0
881.0 6794.0
1419.0 6794.0
714.0 6795.0
763.0 6795.0
852.0 6795.0
959.0 6795.0
991.0 6795.0
1165.0 6795.0
1442.0 6795.0
466.0 6796.0
591.0 6796.0
680.0 6796.0
1135.0 6796.0
762.0 6797.0
1031.0 6797.0
334.0 6798.0
605.0 6798.0
763.0 6798.0
941.0 6798.0
1038.0 6798.0
1223.0 6798.0
1251.0 6798.0
1340.0 6798.0
1390.0 6798.0
1442.0 6798.0
613.0 6799.0
1012.0 6799.0
1172.0 6799.0
1253.0 6799.0
589.0 6800.0
680.0 6800.0
851.0 6800.0
893.0 6800.0
1105.0 6800.0
599.0 6801.0
716.0 6801.0
736.0 6801.0
763.0 6801.0
1254.0 6801.0
1263.0 6801.0
1442.0 6801.0
1014.0 6802.0
1016.0 6802.0
1156.0 6802.0
1222.0 6802.0
1417.0 6802.0
842.0 6803.0
857.0 6803.0
866.0 6803.0
880.0 6803.0
985.0 6803.0
994.0 6803.0
1114.0 6803.0
1433.0 6803.0
615.0 6804.0
680.0 6804.0
763.0 6804.0
841.0 6804.0
864.0 6804.0
1068.0 6804.0
1305.0 6804.0
1337.0 6804.0
1442.0 6804.0
347.0 6805.0
456.0 6805.0
860.0 6805.0
894.0 6805.0
1300.0 6805.0
1423.0 6805.0
850.0 6806.0
763.0 6807.0
1087.0 6807.0
1442.0 6807.0
601.0 6808.0
625.0 6808.0
680.0 6808.0
1001.0 6808.0
725.0 6809.0
950.0 6809.0
983.0 6809.0
1404.0 6809.0
763.0 6810.0
1442.0 6810.0
232.0 6811.0
735.0 6811.0
843.0 6811.0
1226.0 6811.0
632.0 6812.0
680.0 6812.0
754.0 6812.0
1075.0 6812.0
1204.0 6812.0
1418.0 6812.0
734.0 6813.0
763.0 6813.0
949.0 6813.0
973.0 6813.0
1165.0 6813.0
1251.0 6813.0
1345.0 6813.0
1442.0 6813.0
738.0 6814.0
852.0 6814.0
861.0 6814.0
991.0 6814.0
1012.0 6814.0
1038.0 6814.0
1118.0 6814.0
714.0 6815.0
866.0 6815.0
1088.0 6815.0
1390.0 6815.0
591.0 6816.0
680.0 6816.0
763.0 6816.0
819.0 6816.0
1442.0 6816.0
883.0 6817.0
1172.0 6817.0
959.0 6818.0
965.0 6818.0
1105.0 6818.0
1253.0 6818.0
763.0 6819.0
1016.0 6819.0
1135.0 6819.0
1156.0 6819.0
1340.0 6819.0
1442.0 6819.0
680.0 6820.0
880.0 6820.0
612.0 6821.0
743.0 6822.0
763.0 6822.0
857.0 6822.0
941.0 6822.0
1222.0 6822.0
1252.0 6822.0
1254.0 6822.0
1442.0 6822.0
599.0 6823.0
729.0 6823.0
736.0 6823.0
1114.0 6823.0
1225.0 6823.0
680.0 6824.0
726.0 6824.0
860.0 6824.0
1415.0 6824.0
725.0 6825.0
763.0 6825.0
1068.0 6825.0
1337.0 6825.0
1442.0 6825.0
347.0 6826.0
366.0 6826.0
456.0 6826.0
1001.0 6826.0
1404.0 6826.0
1417.0 6826.0
1423.0 6826.0
1445.0 6826.0
841.0 6827.0
842.0 6827.0
866.0 6827.0
680.0 6828.0
735.0 6828.0
763.0 6828.0
1087.0 6828.0
1442.0 6828.0
950.0 6830.0
1226.0 6830.0
1251.0 6830.0
763.0 6831.0
870.0 6831.0
1012.0 6831.0
1038.0 6831.0
1165.0 6831.0
1442.0 6831.0
680.0 6832.0
843.0 6832.0
949.0 6832.0
1390.0 6832.0
852.0 6833.0
973.0 6833.0
1204.0 6833.0
714.0 6834.0
763.0 6834.0
1075.0 6834.0
1172.0 6834.0
1418.0 6834.0
1442.0 6834.0
991.0 6835.0
1345.0 6835.0
591.0 6836.0
680.0 6836.0
738.0 6836.0
861.0 6836.0
1088.0 6836.0
1118.0 6836.0
1156.0 6836.0
763.0 6837.0
880.0 6837.0
1016.0 6837.0
1105.0 6837.0
1253.0 6837.0
1442.0 6837.0
235.0 6839.0
866.0 6839.0
1340.0 6839.0
680.0 6840.0
763.0 6840.0
951.0 6840.0
1442.0 6840.0
959.0 6841.0
1148.0 6841.0
725.0 6842.0
857.0 6842.0
998.0 6842.0
1134.0 6842.0
1222.0 6842.0
736.0 6843.0
763.0 6843.0
860.0 6843.0
1001.0 6843.0
1114.0 6843.0
1135.0 6843.0
1254.0 6843.0
1404.0 6843.0
1442.0 6843.0
599.0 6844.0
680.0 6844.0
735.0 6844.0
851.0 6845.0
941.0 6845.0
456.0 6846.0
719.0 6846.0
763.0 6846.0
1068.0 6846.0
1243.0 6846.0
1337.0 6846.0
1442.0 6846.0
347.0 6847.0
1251.0 6847.0
1423.0 6847.0
680.0 6848.0
1012.0 6848.0
1038.0 6848.0
1355.0 6848.0
740.0 6849.0
763.0 6849.0
1087.0 6849.0
1226.0 6849.0
1390.0 6849.0
1442.0 6849.0
992.0 6850.0
1165.0 6850.0
1417.0 6850.0
1434.0 6850.0
841.0 6851.0
842.0 6851.0
866.0 6851.0
950.0 6851.0
1172.0 6851.0
680.0 6852.0
763.0 6852.0
949.0 6852.0
1442.0 6852.0
852.0 6853.0
973.0 6853.0
1156.0 6853.0
714.0 6854.0
843.0 6854.0
880.0 6854.0
763.0 6855.0
991.0 6855.0
1016.0 6855.0
1105.0 6855.0
1204.0 6855.0
1442.0 6855.0
591.0 6856.0
680.0 6856.0
1018.0 6856.0
1075.0 6856.0
1253.0 6856.0
1418.0 6856.0
449.0 6858.0
738.0 6858.0
763.0 6858.0
861.0 6858.0
1088.0 6858.0
1115.0 6858.0
1118.0 6858.0
1262.0 6858.0
1345.0 6858.0
1442.0 6858.0
725.0 6859.0
680.0 6860.0
735.0 6860.0
1001.0 6860.0
1340.0 6860.0
744.0 6861.0
763.0 6861.0
857.0 6861.0
1404.0 6861.0
1442.0 6861.0
860.0 6862.0
1257.0 6862.0
736.0 6863.0
866.0 6863.0
985.0 6863.0
1136.0 6863.0
1222.0 6863.0
680.0 6864.0
763.0 6864.0
1114.0 6864.0
1251.0 6864.0
1254.0 6864.0
1271.0 6864.0
1442.0 6864.0
599.0 6865.0
886.0 6865.0
959.0 6865.0
1012.0 6865.0
1038.0 6865.0
1390.0 6865.0
1135.0 6866.0
456.0 6867.0
478.0 6867.0
763.0 6867.0
863.0 6867.0
1014.0 6867.0
1068.0 6867.0
1337.0 6867.0
1442.0 6867.0
347.0 6868.0
475.0 6868.0
625.0 6868.0
680.0 6868.0
941.0 6868.0
989.0 6868.0
1172.0 6868.0
1226.0 6868.0
1423.0 6868.0
1010.0 6869.0
1133.0 6869.0
1144.0 6869.0
1165.0 6869.0
1436.0 6869.0
763.0 6870.0
880.0 6870.0
1087.0 6870.0
1156.0 6870.0
1241.0 6870.0
1442.0 6870.0
1446.0 6870.0
1174.0 6871.0
680.0 6872.0
903.0 6872.0
949.0 6872.0
973.0 6872.0
1004.0 6872.0
1099.0 6872.0
763.0 6873.0
852.0 6873.0
950.0 6873.0
1022.0 6873.0
1433.0 6873.0
1442.0 6873.0
714.0 6874.0
762.0 6874.0
842.0 6874.0
889.0 6874.0
894.0 6874.0
1016.0 6874.0
1105.0 6874.0
1381.0 6874.0
1417.0 6874.0
725.0 6875.0
866.0 6875.0
1031.0 6875.0
1253.0 6875.0
591.0 6876.0
680.0 6876.0
763.0 6876.0
841.0 6876.0
843.0 6876.0
1236.0 6876.0
1305.0 6876.0
1439.0 6876.0
1442.0 6876.0
241.0 6877.0
735.0 6877.0
991.0 6877.0
1001.0 6877.0
1116.0 6877.0
1204.0 6877.0
1404.0 6878.0
1418.0 6878.0
1419.0 6878.0
763.0 6879.0
857.0 6879.0
864.0 6879.0
881.0 6879.0
1075.0 6879.0
1442.0 6879.0
334.0 6880.0
680.0 6880.0
738.0 6880.0
1251.0 6880.0
1345.0 6880.0
1390.0 6880.0
466.0 6881.0
726.0 6881.0
860.0 6881.0
861.0 6881.0
893.0 6881.0
1038.0 6881.0
1088.0 6881.0
1118.0 6881.0
1340.0 6881.0
763.0 6882.0
872.0 6882.0
1012.0 6882.0
1225.0 6882.0
1374.0 6882.0
1388.0 6882.0
1442.0 6882.0
819.0 6883.0
1213.0 6883.0
1222.0 6883.0
1223.0 6883.0
590.0 6884.0
680.0 6884.0
745.0 6884.0
1254.0 6884.0
1447.0 6884.0
599.0 6885.0
736.0 6885.0
763.0 6885.0
1114.0 6885.0
1409.0 6885.0
1442.0 6885.0
866.0 6886.0
880.0 6886.0
959.0 6886.0
1172.0 6886.0
1300.0 6886.0
589.0 6887.0
605.0 6887.0
612.0 6887.0
851.0 6887.0
1165.0 6887.0
456.0 6888.0
493.0 6888.0
680.0 6888.0
734.0 6888.0
763.0 6888.0
965.0 6888.0
1068.0 6888.0
1135.0 6888.0
1156.0 6888.0
1226.0 6888.0
1238.0 6888.0
1337.0 6888.0
1442.0 6888.0
347.0 6889.0
994.0 6889.0
1423.0 6889.0
632.0 6890.0
725.0 6890.0
850.0 6890.0
763.0 6891.0
949.0 6891.0
1016.0 6891.0
1087.0 6891.0
1442.0 6891.0
680.0 6892.0
852.0 6892.0
883.0 6892.0
941.0 6892.0
973.0 6892.0
1105.0 6892.0
735.0 6893.0
714.0 6894.0
763.0 6894.0
950.0 6894.0
1253.0 6894.0
1263.0 6894.0
1442.0 6894.0
1001.0 6895.0
1404.0 6895.0
591.0 6896.0
680.0 6896.0
1251.0 6896.0
1445.0 6896.0
763.0 6897.0
842.0 6897.0
843.0 6897.0
857.0 6897.0
866.0 6897.0
870.0 6897.0
991.0 6897.0
1148.0 6897.0
1390.0 6897.0
1442.0 6897.0
860.0 6898.0
1012.0 6898.0
1038.0 6898.0
1204.0 6898.0
1417.0 6898.0
1398.0 6899.0
1418.0 6899.0
680.0 6900.0
729.0 6900.0
763.0 6900.0
841.0 6900.0
1355.0 6900.0
1442.0 6900.0
601.0 6901.0
738.0 6901.0
1075.0 6901.0
1118.0 6901.0
1243.0 6901.0
861.0 6902.0
1222.0 6902.0
1340.0 6902.0
1345.0 6902.0
763.0 6903.0
880.0 6903.0
1088.0 6903.0
1172.0 6903.0
1252.0 6903.0
1442.0 6903.0
680.0 6904.0
1254.0 6904.0
1156.0 6905.0
599.0 6906.0
725.0 6906.0
736.0 6906.0
763.0 6906.0
1114.0 6906.0
1165.0 6906.0
1442.0 6906.0
754.0 6907.0
680.0 6908.0
866.0 6908.0
959.0 6908.0
1134.0 6908.0
1226.0 6908.0
456.0 6909.0
735.0 6909.0
763.0 6909.0
1016.0 6909.0
1068.0 6909.0
1337.0 6909.0
1442.0 6909.0
347.0 6910.0
613.0 6910.0
949.0 6910.0
1105.0 6910.0
1423.0 6910.0
680.0 6912.0
852.0 6912.0
973.0 6912.0
1087.0 6912.0
1135.0 6912.0
1253.0 6912.0
1404.0 6912.0
1442.0 6912.0
763.0 6913.0
1001.0 6913.0
1251.0 6913.0
714.0 6914.0
1390.0 6914.0
941.0 6915.0
950.0 6915.0
1012.0 6915.0
1038.0 6915.0
1442.0 6915.0
591.0 6916.0
680.0 6916.0
763.0 6916.0
857.0 6916.0
985.0 6916.0
860.0 6917.0
991.0 6917.0
719.0 6918.0
1442.0 6918.0
763.0 6919.0
843.0 6919.0
680.0 6920.0
842.0 6920.0
866.0 6920.0
1028.0 6920.0
1172.0 6920.0
1204.0 6920.0
880.0 6921.0
1442.0 6921.0
763.0 6922.0
1156.0 6922.0
1222.0 6922.0
1340.0 6922.0
1417.0 6922.0
1418.0 6922.0
725.0 6923.0
738.0 6923.0
1118.0 6923.0
680.0 6924.0
841.0 6924.0
1075.0 6924.0
1345.0 6924.0
1442.0 6924.0
763.0 6925.0
861.0 6925.0
1088.0 6925.0
1165.0 6925.0
1254.0 6925.0
735.0 6926.0
736.0 6927.0
1114.0 6927.0
1442.0 6927.0
599.0 6928.0
680.0 6928.0
1016.0 6928.0
1226.0 6928.0
763.0 6929.0
951.0 6929.0
1105.0 6929.0
949.0 6930.0
959.0 6930.0
1068.0 6930.0
1337.0 6930.0
1404.0 6930.0
1442.0 6930.0
1001.0 6931.0
1251.0 6931.0
1253.0 6931.0
1390.0 6931.0
1423.0 6931.0
456.0 6932.0
680.0 6932.0
763.0 6932.0
852.0 6932.0
866.0 6932.0
973.0 6932.0
1257.0 6932.0
347.0 6933.0
1012.0 6933.0
1038.0 6933.0
1087.0 6933.0
1442.0 6933.0
714.0 6934.0
1135.0 6934.0
763.0 6935.0
857.0 6935.0
680.0 6936.0
950.0 6936.0
1115.0 6936.0
1442.0 6936.0
591.0 6937.0
851.0 6937.0
860.0 6937.0
991.0 6937.0
1434.0 6937.0
763.0 6938.0
1172.0 6938.0
880.0 6939.0
941.0 6939.0
1442.0 6939.0
680.0 6940.0
725.0 6940.0
1156.0 6940.0
763.0 6941.0
1204.0 6942.0
1225.0 6942.0
1340.0 6942.0
1442.0 6942.0
735.0 6943.0
843.0 6943.0
1174.0 6943.0
1222.0 6943.0
1446.0 6943.0
680.0 6944.0
763.0 6944.0
842.0 6944.0
866.0 6944.0
1165.0 6944.0
1418.0 6944.0
738.0 6945.0
1118.0 6945.0
1442.0 6945.0
1075.0 6946.0
1254.0 6946.0
1345.0 6946.0
1417.0 6946.0
763.0 6947.0
1088.0 6947.0
1226.0 6947.0
680.0 6948.0
736.0 6948.0
863.0 6948.0
1016.0 6948.0
1105.0 6948.0
1114.0 6948.0
1390.0 6948.0
1404.0 6948.0
1442.0 6948.0
841.0 6949.0
861.0 6949.0
1001.0 6949.0
1251.0 6949.0
599.0 6950.0
763.0 6950.0
949.0 6950.0
1012.0 6950.0
1038.0 6950.0
1068.0 6951.0
1253.0 6951.0
1337.0 6951.0
1442.0 6951.0
680.0 6952.0
852.0 6952.0
973.0 6952.0
1423.0 6952.0
456.0 6953.0
763.0 6953.0
959.0 6953.0
625.0 6954.0
714.0 6954.0
857.0 6954.0
1355.0 6954.0
1442.0 6954.0
347.0 6955.0
880.0 6955.0
1087.0 6955.0
591.0 6956.0
680.0 6956.0
763.0 6956.0
866.0 6956.0
1172.0 6956.0
725.0 6957.0
860.0 6957.0
894.0 6957.0
991.0 6957.0
1135.0 6957.0
1156.0 6957.0
1241.0 6957.0
1442.0 6957.0
763.0 6959.0
950.0 6959.0
1419.0 6959.0
1433.0 6959.0
680.0 6960.0
735.0 6960.0
819.0 6960.0
1014.0 6960.0
1442.0 6960.0
1018.0 6961.0
763.0 6962.0
1165.0 6962.0
1262.0 6962.0
941.0 6963.0
1222.0 6963.0
1340.0 6963.0
1442.0 6963.0
680.0 6964.0
1390.0 6964.0
763.0 6965.0
843.0 6965.0
1204.0 6965.0
1251.0 6965.0
1404.0 6965.0
864.0 6966.0
1001.0 6966.0
1016.0 6966.0
1254.0 6966.0
1442.0 6966.0
726.0 6967.0
738.0 6967.0
866.0 6967.0
1012.0 6967.0
1038.0 6967.0
1105.0 6967.0
1118.0 6967.0
1226.0 6967.0
1418.0 6967.0
680.0 6968.0
763.0 6968.0
842.0 6968.0
1075.0 6968.0
1345.0 6968.0
949.0 6969.0
1088.0 6969.0
1114.0 6969.0
1442.0 6969.0
736.0 6970.0
1253.0 6970.0
1417.0 6970.0
599.0 6971.0
763.0 6971.0
889.0 6971.0
1337.0 6971.0
1415.0 6971.0
680.0 6972.0
852.0 6972.0
861.0 6972.0
880.0 6972.0
973.0 6972.0
1068.0 6972.0
1442.0 6972.0
725.0 6973.0
841.0 6973.0
857.0 6973.0
1172.0 6973.0
1243.0 6973.0
1423.0 6973.0
1436.0 6973.0
456.0 6974.0
478.0 6974.0
612.0 6974.0
714.0 6974.0
763.0 6974.0
1156.0 6974.0
1305.0 6974.0
1442.0 6975.0
347.0 6976.0
466.0 6976.0
591.0 6976.0
680.0 6976.0
860.0 6976.0
735.0 6977.0
763.0 6977.0
870.0 6977.0
959.0 6977.0
991.0 6977.0
1087.0 6977.0
1148.0 6977.0
744.0 6978.0
762.0 6978.0
998.0 6978.0
1442.0 6978.0
680.0 6979.0
866.0 6979.0
985.0 6979.0
763.0 6980.0
1135.0 6980.0
1236.0 6980.0
1390.0 6980.0
475.0 6981.0
734.0 6981.0
950.0 6981.0
1165.0 6981.0
1251.0 6981.0
1442.0 6981.0
241.0 6983.0
615.0 6983.0
680.0 6983.0
851.0 6983.0
1222.0 6983.0
1340.0 6983.0
1404.0 6983.0
763.0 6984.0
1001.0 6984.0
1012.0 6984.0
1016.0 6984.0
1038.0 6984.0
1442.0 6984.0
601.0 6985.0
1105.0 6985.0
1133.0 6985.0
1134.0 6985.0
1136.0 6985.0
843.0 6986.0
850.0 6986.0
941.0 6986.0
1204.0 6986.0
1226.0 6986.0
680.0 6987.0
1254.0 6987.0
1442.0 6987.0
738.0 6988.0
763.0 6988.0
949.0 6988.0
1118.0 6988.0
965.0 6989.0
1253.0 6989.0
1418.0 6989.0
680.0 6990.0
725.0 6990.0
842.0 6990.0
857.0 6990.0
880.0 6990.0
1075.0 6990.0
1114.0 6990.0
1345.0 6990.0
1442.0 6990.0
736.0 6991.0
852.0 6991.0
866.0 6991.0
973.0 6991.0
1088.0 6991.0
1172.0 6991.0
1337.0 6991.0
763.0 6992.0
1068.0 6992.0
1156.0 6992.0
599.0 6993.0
714.0 6993.0
1417.0 6993.0
1423.0 6993.0
1442.0 6993.0
680.0 6994.0
735.0 6995.0
456.0 6996.0
763.0 6996.0
860.0 6996.0
861.0 6996.0
991.0 6996.0
1442.0 6996.0
1087.0 6997.0
591.0 6998.0
729.0 6999.0
841.0 6999.0
959.0 6999.0
1251.0 6999.0
1390.0 6999.0
347.0 7000.0
680.0 7000.0
1442.0 7000.0
