680.0 7206.0
763.0 7206.0
1442.0 7206.0
1442.0 7209.0
680.0 7210.0
763.0 7211.0
1442.0 7213.0
680.0 7214.0
763.0 7216.0
1442.0 7216.0
680.0 7217.0
1442.0 7219.0
763.0 7220.0
680.0 7221.0
1442.0 7222.0
680.0 7224.0
763.0 7224.0
1442.0 7225.0
866.0 7227.0
680.0 7228.0
763.0 7228.0
1442.0 7229.0
680.0 7231.0
763.0 7232.0
1442.0 7232.0
973.0 7233.0
1105.0 7233.0
680.0 7234.0
842.0 7234.0
950.0 7234.0
991.0 7234.0
1068.0 7234.0
1088.0 7234.0
1114.0 7234.0
1226.0 7234.0
1337.0 7234.0
1340.0 7234.0
1345.0 7234.0
1423.0 7234.0
852.0 7235.0
857.0 7235.0
941.0 7235.0
949.0 7235.0
959.0 7235.0
1075.0 7235.0
1087.0 7235.0
1118.0 7235.0
1135.0 7235.0
1254.0 7235.0
1418.0 7235.0
1442.0 7235.0
714.0 7236.0
738.0 7236.0
763.0 7236.0
1012.0 7236.0
1156.0 7236.0
1204.0 7236.0
1222.0 7236.0
1417.0 7236.0
680.0 7237.0
735.0 7237.0
860.0 7237.0
1001.0 7237.0
1165.0 7237.0
1172.0 7237.0
1251.0 7237.0
1253.0 7237.0
591.0 7238.0
725.0 7238.0
1038.0 7238.0
1390.0 7238.0
1404.0 7238.0
1442.0 7238.0
599.0 7239.0
736.0 7239.0
843.0 7239.0
880.0 7239.0
1016.0 7239.0
347.0 7240.0
456.0 7240.0
680.0 7240.0
763.0 7240.0
861.0 7240.0
866.0 7240.0
841.0 7241.0
1442.0 7241.0
680.0 7243.0
763.0 7244.0
1442.0 7245.0
680.0 7246.0
763.0 7248.0
1442.0 7248.0
680.0 7249.0
1105.0 7249.0
973.0 7251.0
991.0 7251.0
1442.0 7251.0
680.0 7252.0
857.0 7252.0
866.0 7252.0
1068.0 7252.0
1114.0 7252.0
1226.0 7252.0
1337.0 7252.0
1340.0 7252.0
763.0 7253.0
852.0 7253.0
949.0 7253.0
950.0 7253.0
1088.0 7253.0
1345.0 7253.0
1423.0 7253.0
714.0 7254.0
842.0 7254.0
959.0 7254.0
1075.0 7254.0
1087.0 7254.0
1222.0 7254.0
1254.0 7254.0
1442.0 7254.0
680.0 7255.0
738.0 7255.0
941.0 7255.0
1118.0 7255.0
1135.0 7255.0
1204.0 7255.0
1418.0 7255.0
1417.0 7256.0
763.0 7257.0
860.0 7257.0
1442.0 7257.0
591.0 7258.0
680.0 7258.0
735.0 7258.0
1012.0 7258.0
725.0 7259.0
1251.0 7259.0
1038.0 7260.0
1156.0 7260.0
1165.0 7260.0
1172.0 7260.0
1390.0 7260.0
599.0 7261.0
680.0 7261.0
736.0 7261.0
880.0 7261.0
1001.0 7261.0
1442.0 7261.0
347.0 7262.0
843.0 7262.0
1253.0 7262.0
1404.0 7262.0
456.0 7263.0
763.0 7263.0
680.0 7264.0
861.0 7264.0
866.0 7264.0
1016.0 7264.0
1442.0 7264.0
1105.0 7266.0
680.0 7267.0
841.0 7267.0
1442.0 7267.0
763.0 7268.0
973.0 7268.0
991.0 7268.0
857.0 7269.0
680.0 7270.0
852.0 7270.0
949.0 7270.0
1068.0 7270.0
1114.0 7270.0
1226.0 7270.0
1337.0 7270.0
1340.0 7270.0
1442.0 7270.0
714.0 7271.0
1345.0 7271.0
1423.0 7271.0
950.0 7272.0
1088.0 7272.0
1222.0 7272.0
680.0 7273.0
738.0 7273.0
763.0 7273.0
959.0 7273.0
1075.0 7273.0
1087.0 7273.0
1254.0 7273.0
1442.0 7273.0
842.0 7274.0
1118.0 7274.0
1135.0 7274.0
1204.0 7274.0
1418.0 7274.0
827.0 7275.0
941.0 7275.0
680.0 7276.0
866.0 7276.0
1417.0 7276.0
671.0 7277.0
1442.0 7277.0
763.0 7278.0
851.0 7278.0
860.0 7278.0
680.0 7279.0
591.0 7280.0
1442.0 7280.0
680.0 7282.0
725.0 7282.0
1105.0 7282.0
735.0 7283.0
763.0 7283.0
1442.0 7283.0
1012.0 7284.0
599.0 7285.0
680.0 7285.0
991.0 7285.0
1251.0 7285.0
736.0 7286.0
857.0 7286.0
973.0 7286.0
1038.0 7286.0
1390.0 7286.0
1442.0 7286.0
880.0 7287.0
949.0 7287.0
1172.0 7287.0
347.0 7288.0
680.0 7288.0
763.0 7288.0
852.0 7288.0
1001.0 7288.0
1068.0 7288.0
1114.0 7288.0
1156.0 7288.0
1165.0 7288.0
1226.0 7288.0
1337.0 7288.0
1340.0 7288.0
456.0 7289.0
714.0 7289.0
843.0 7289.0
866.0 7289.0
1345.0 7289.0
1423.0 7289.0
1442.0 7289.0
1222.0 7290.0
1404.0 7290.0
680.0 7291.0
861.0 7291.0
950.0 7291.0
1088.0 7291.0
738.0 7292.0
959.0 7292.0
1075.0 7292.0
1087.0 7292.0
1253.0 7292.0
1254.0 7292.0
763.0 7293.0
1118.0 7293.0
1135.0 7293.0
1204.0 7293.0
1418.0 7293.0
1442.0 7293.0
680.0 7294.0
842.0 7294.0
1016.0 7294.0
677.0 7295.0
941.0 7295.0
801.0 7296.0
1084.0 7296.0
1417.0 7296.0
1442.0 7296.0
680.0 7297.0
841.0 7297.0
763.0 7298.0
1105.0 7298.0
860.0 7299.0
1442.0 7299.0
680.0 7300.0
866.0 7301.0
591.0 7302.0
857.0 7302.0
991.0 7302.0
1442.0 7302.0
680.0 7303.0
763.0 7303.0
949.0 7304.0
973.0 7304.0
725.0 7305.0
852.0 7305.0
1226.0 7305.0
1442.0 7305.0
680.0 7306.0
714.0 7306.0
981.0 7306.0
1068.0 7306.0
1114.0 7306.0
1337.0 7306.0
1340.0 7306.0
1345.0 7307.0
1423.0 7307.0
599.0 7308.0
735.0 7308.0
763.0 7308.0
1222.0 7308.0
680.0 7309.0
950.0 7309.0
1012.0 7309.0
1442.0 7309.0
1087.0 7310.0
1088.0 7310.0
1251.0 7310.0
736.0 7311.0
738.0 7311.0
880.0 7311.0
942.0 7311.0
959.0 7311.0
1038.0 7311.0
1075.0 7311.0
1118.0 7311.0
1204.0 7311.0
1254.0 7311.0
680.0 7312.0
704.0 7312.0
763.0 7312.0
1390.0 7312.0
1418.0 7312.0
1442.0 7312.0
347.0 7313.0
679.0 7313.0
866.0 7313.0
1135.0 7313.0
1172.0 7313.0
842.0 7314.0
960.0 7314.0
456.0 7315.0
680.0 7315.0
837.0 7315.0
843.0 7315.0
941.0 7315.0
1105.0 7315.0
1156.0 7315.0
1165.0 7315.0
1442.0 7315.0
763.0 7316.0
1001.0 7316.0
1417.0 7316.0
861.0 7317.0
1117.0 7317.0
680.0 7318.0
1404.0 7318.0
1442.0 7318.0
717.0 7319.0
857.0 7319.0
991.0 7319.0
1205.0 7319.0
698.0 7320.0
763.0 7320.0
860.0 7320.0
680.0 7321.0
949.0 7321.0
973.0 7321.0
1253.0 7321.0
1442.0 7321.0
591.0 7322.0
852.0 7322.0
1016.0 7322.0
1226.0 7322.0
1225.0 7323.0
1340.0 7323.0
680.0 7324.0
714.0 7324.0
763.0 7324.0
841.0 7324.0
1068.0 7324.0
1114.0 7324.0
1337.0 7324.0
866.0 7325.0
1345.0 7325.0
1423.0 7325.0
1442.0 7325.0
725.0 7326.0
985.0 7326.0
1222.0 7326.0
680.0 7327.0
719.0 7327.0
950.0 7327.0
599.0 7328.0
671.0 7328.0
763.0 7328.0
1087.0 7328.0
1088.0 7328.0
1442.0 7328.0
735.0 7329.0
827.0 7329.0
959.0 7329.0
1075.0 7329.0
1254.0 7329.0
680.0 7330.0
738.0 7330.0
1118.0 7330.0
1204.0 7330.0
1418.0 7330.0
695.0 7331.0
1442.0 7331.0
736.0 7332.0
763.0 7332.0
1012.0 7332.0
1105.0 7332.0
1251.0 7332.0
680.0 7333.0
1038.0 7333.0
1135.0 7333.0
347.0 7334.0
839.0 7334.0
842.0 7334.0
880.0 7334.0
941.0 7334.0
1390.0 7334.0
1442.0 7334.0
456.0 7336.0
680.0 7336.0
763.0 7336.0
847.0 7336.0
857.0 7336.0
991.0 7336.0
1106.0 7336.0
1172.0 7336.0
1417.0 7336.0
843.0 7337.0
866.0 7337.0
949.0 7337.0
1442.0 7337.0
407.0 7338.0
973.0 7338.0
1156.0 7338.0
1196.0 7338.0
680.0 7339.0
860.0 7339.0
861.0 7339.0
1001.0 7339.0
1165.0 7339.0
1226.0 7339.0
763.0 7340.0
851.0 7340.0
852.0 7340.0
1442.0 7340.0
591.0 7341.0
705.0 7341.0
714.0 7341.0
1114.0 7341.0
1340.0 7341.0
1404.0 7341.0
568.0 7342.0
680.0 7342.0
1068.0 7342.0
1337.0 7342.0
1115.0 7343.0
1345.0 7343.0
1423.0 7343.0
1442.0 7343.0
763.0 7344.0
1222.0 7344.0
680.0 7345.0
950.0 7345.0
1253.0 7345.0
725.0 7346.0
1016.0 7346.0
1087.0 7346.0
1088.0 7346.0
1442.0 7346.0
1105.0 7347.0
1254.0 7347.0
680.0 7348.0
763.0 7348.0
959.0 7348.0
1075.0 7348.0
1118.0 7348.0
1204.0 7348.0
1241.0 7348.0
1244.0 7348.0
1418.0 7348.0
735.0 7349.0
738.0 7349.0
866.0 7349.0
951.0 7349.0
1355.0 7349.0
1442.0 7349.0
599.0 7350.0
841.0 7350.0
680.0 7351.0
857.0 7351.0
1084.0 7351.0
1135.0 7351.0
763.0 7352.0
953.0 7352.0
1251.0 7352.0
1419.0 7352.0
1442.0 7352.0
736.0 7353.0
941.0 7353.0
949.0 7353.0
991.0 7353.0
1012.0 7353.0
1038.0 7353.0
680.0 7354.0
842.0 7354.0
880.0 7354.0
1390.0 7354.0
1417.0 7354.0
347.0 7355.0
973.0 7355.0
1226.0 7355.0
1442.0 7355.0
456.0 7356.0
763.0 7356.0
680.0 7357.0
852.0 7357.0
860.0 7357.0
1172.0 7357.0
1433.0 7357.0
714.0 7358.0
1114.0 7358.0
1340.0 7358.0
1442.0 7358.0
843.0 7359.0
1156.0 7359.0
591.0 7360.0
680.0 7360.0
763.0 7360.0
975.0 7360.0
1001.0 7360.0
1068.0 7360.0
1337.0 7360.0
1423.0 7360.0
861.0 7361.0
866.0 7361.0
1165.0 7361.0
1222.0 7361.0
1345.0 7361.0
1442.0 7361.0
1105.0 7362.0
1404.0 7362.0
680.0 7363.0
950.0 7363.0
1087.0 7363.0
763.0 7364.0
1254.0 7364.0
1442.0 7364.0
725.0 7365.0
801.0 7365.0
1088.0 7365.0
677.0 7366.0
680.0 7366.0
857.0 7366.0
998.0 7366.0
1075.0 7366.0
1118.0 7366.0
1204.0 7366.0
1418.0 7366.0
738.0 7367.0
959.0 7367.0
1442.0 7367.0
763.0 7368.0
680.0 7369.0
735.0 7369.0
949.0 7369.0
991.0 7369.0
1016.0 7369.0
1253.0 7369.0
1135.0 7370.0
1442.0 7370.0
599.0 7371.0
973.0 7371.0
1226.0 7371.0
680.0 7372.0
763.0 7372.0
866.0 7372.0
941.0 7372.0
1251.0 7372.0
729.0 7373.0
736.0 7373.0
842.0 7373.0
852.0 7373.0
1038.0 7373.0
1417.0 7373.0
1442.0 7373.0
734.0 7374.0
841.0 7374.0
880.0 7374.0
1012.0 7374.0
1390.0 7374.0
680.0 7375.0
714.0 7375.0
763.0 7375.0
981.0 7375.0
1114.0 7375.0
1340.0 7375.0
347.0 7376.0
860.0 7376.0
1243.0 7376.0
1442.0 7376.0
1068.0 7377.0
1257.0 7377.0
1337.0 7377.0
1445.0 7377.0
1446.0 7377.0
456.0 7378.0
680.0 7378.0
827.0 7378.0
1105.0 7378.0
1172.0 7378.0
1222.0 7378.0
1345.0 7378.0
1423.0 7378.0
591.0 7379.0
763.0 7379.0
1442.0 7379.0
1001.0 7380.0
1156.0 7380.0
1238.0 7380.0
680.0 7381.0
843.0 7381.0
857.0 7381.0
950.0 7381.0
1087.0 7381.0
1254.0 7381.0
763.0 7382.0
1165.0 7382.0
1442.0 7382.0
679.0 7383.0
725.0 7383.0
861.0 7383.0
942.0 7383.0
1088.0 7383.0
1174.0 7383.0
1404.0 7383.0
680.0 7384.0
850.0 7384.0
866.0 7384.0
1075.0 7384.0
1118.0 7384.0
1204.0 7384.0
1418.0 7384.0
671.0 7385.0
717.0 7385.0
738.0 7385.0
837.0 7385.0
949.0 7385.0
959.0 7385.0
1439.0 7385.0
1442.0 7385.0
763.0 7386.0
985.0 7386.0
991.0 7386.0
680.0 7387.0
735.0 7387.0
851.0 7387.0
965.0 7388.0
973.0 7388.0
1226.0 7388.0
1263.0 7388.0
1442.0 7388.0
434.0 7389.0
763.0 7389.0
1135.0 7389.0
1213.0 7389.0
1225.0 7389.0
599.0 7390.0
680.0 7390.0
698.0 7390.0
704.0 7390.0
852.0 7390.0
941.0 7390.0
1236.0 7390.0
714.0 7391.0
863.0 7391.0
1016.0 7391.0
1038.0 7391.0
1223.0 7391.0
1251.0 7391.0
1253.0 7391.0
1442.0 7391.0
719.0 7392.0
736.0 7392.0
763.0 7392.0
842.0 7392.0
880.0 7392.0
1114.0 7392.0
1340.0 7392.0
1417.0 7392.0
680.0 7393.0
860.0 7393.0
1012.0 7393.0
1105.0 7393.0
1117.0 7393.0
1068.0 7394.0
1222.0 7394.0
1337.0 7394.0
1390.0 7394.0
1442.0 7394.0
763.0 7395.0
866.0 7395.0
347.0 7396.0
680.0 7396.0
841.0 7396.0
1172.0 7396.0
1345.0 7396.0
1423.0 7396.0
591.0 7397.0
857.0 7397.0
1205.0 7397.0
1442.0 7397.0
456.0 7398.0
763.0 7398.0
950.0 7398.0
1156.0 7398.0
1254.0 7398.0
1434.0 7398.0
476.0 7399.0
680.0 7399.0
1001.0 7399.0
1087.0 7399.0
725.0 7400.0
1442.0 7400.0
763.0 7401.0
843.0 7401.0
949.0 7401.0
960.0 7401.0
1088.0 7401.0
1118.0 7401.0
1165.0 7401.0
1204.0 7401.0
680.0 7402.0
861.0 7402.0
959.0 7402.0
991.0 7402.0
1075.0 7402.0
1374.0 7402.0
1404.0 7402.0
1418.0 7402.0
735.0 7403.0
738.0 7403.0
1442.0 7403.0
744.0 7404.0
763.0 7404.0
819.0 7404.0
973.0 7404.0
1226.0 7404.0
680.0 7405.0
833.0 7405.0
866.0 7405.0
1355.0 7405.0
695.0 7406.0
852.0 7406.0
1110.0 7406.0
1442.0 7406.0
599.0 7407.0
714.0 7407.0
763.0 7407.0
839.0 7407.0
1084.0 7407.0
547.0 7408.0
680.0 7408.0
860.0 7408.0
1038.0 7408.0
1105.0 7408.0
1135.0 7408.0
1251.0 7408.0
736.0 7409.0
864.0 7409.0
880.0 7409.0
941.0 7409.0
1114.0 7409.0
1340.0 7409.0
1442.0 7409.0
763.0 7410.0
953.0 7410.0
1012.0 7410.0
1016.0 7410.0
1253.0 7410.0
1436.0 7410.0
625.0 7411.0
680.0 7411.0
842.0 7411.0
1068.0 7411.0
1222.0 7411.0
1337.0 7411.0
1390.0 7411.0
1417.0 7411.0
857.0 7412.0
1115.0 7412.0
1388.0 7412.0
1442.0 7412.0
428.0 7413.0
591.0 7413.0
687.0 7413.0
763.0 7413.0
347.0 7414.0
680.0 7414.0
805.0 7414.0
950.0 7414.0
1172.0 7414.0
1196.0 7414.0
1345.0 7414.0
1423.0 7414.0
726.0 7415.0
866.0 7415.0
1107.0 7415.0
1241.0 7415.0
1254.0 7415.0
1442.0 7415.0
456.0 7416.0
705.0 7416.0
725.0 7416.0
763.0 7416.0
841.0 7416.0
949.0 7416.0
1156.0 7416.0
680.0 7417.0
1001.0 7417.0
1018.0 7417.0
1087.0 7417.0
1204.0 7417.0
1247.0 7417.0
1415.0 7417.0
588.0 7418.0
991.0 7418.0
1134.0 7418.0
1442.0 7418.0
558.0 7419.0
763.0 7419.0
843.0 7419.0
1118.0 7419.0
680.0 7420.0
735.0 7420.0
861.0 7420.0
959.0 7420.0
973.0 7420.0
997.0 7420.0
1075.0 7420.0
1088.0 7420.0
1165.0 7420.0
1226.0 7420.0
1404.0 7420.0
1418.0 7420.0
568.0 7421.0
738.0 7421.0
1442.0 7421.0
612.0 7422.0
852.0 7422.0
468.0 7423.0
680.0 7423.0
714.0 7423.0
763.0 7423.0
870.0 7423.0
1105.0 7423.0
860.0 7424.0
1442.0 7424.0
589.0 7425.0
599.0 7425.0
866.0 7425.0
1038.0 7425.0
1251.0 7425.0
680.0 7426.0
763.0 7426.0
851.0 7426.0
880.0 7426.0
971.0 7426.0
1114.0 7426.0
1340.0 7426.0
736.0 7427.0
857.0 7427.0
1135.0 7427.0
1222.0 7427.0
1442.0 7427.0
801.0 7428.0
847.0 7428.0
1012.0 7428.0
1068.0 7428.0
1390.0 7428.0
680.0 7429.0
763.0 7429.0
941.0 7429.0
1016.0 7429.0
1337.0 7429.0
1417.0 7429.0
591.0 7430.0
842.0 7430.0
1253.0 7430.0
1442.0 7430.0
347.0 7431.0
671.0 7431.0
894.0 7431.0
303.0 7432.0
680.0 7432.0
725.0 7432.0
763.0 7432.0
949.0 7432.0
950.0 7432.0
951.0 7432.0
981.0 7432.0
1172.0 7432.0
1254.0 7432.0
1257.0 7432.0
1345.0 7432.0
1423.0 7432.0
1433.0 7432.0
1442.0 7433.0
456.0 7434.0
605.0 7434.0
827.0 7434.0
985.0 7434.0
991.0 7434.0
1001.0 7434.0
1156.0 7434.0
677.0 7435.0
680.0 7435.0
763.0 7435.0
1028.0 7435.0
1087.0 7435.0
1204.0 7435.0
866.0 7436.0
1226.0 7436.0
1442.0 7436.0
735.0 7437.0
841.0 7437.0
973.0 7437.0
1118.0 7437.0
680.0 7438.0
843.0 7438.0
852.0 7438.0
959.0 7438.0
1014.0 7438.0
1105.0 7438.0
1404.0 7438.0
1418.0 7438.0
714.0 7439.0
738.0 7439.0
763.0 7439.0
1075.0 7439.0
1088.0 7439.0
1165.0 7439.0
1442.0 7439.0
860.0 7440.0
861.0 7440.0
680.0 7441.0
1099.0 7441.0
1251.0 7441.0
1419.0 7441.0
707.0 7442.0
763.0 7442.0
857.0 7442.0
1038.0 7442.0
1442.0 7442.0
599.0 7443.0
880.0 7443.0
1114.0 7443.0
1243.0 7443.0
1340.0 7443.0
680.0 7444.0
975.0 7444.0
1222.0 7444.0
736.0 7445.0
763.0 7445.0
1068.0 7445.0
1135.0 7445.0
1390.0 7445.0
1442.0 7445.0
1446.0 7445.0
445.0 7446.0
591.0 7446.0
698.0 7446.0
1012.0 7446.0
1106.0 7446.0
407.0 7447.0
680.0 7447.0
866.0 7447.0
1337.0 7447.0
1417.0 7447.0
763.0 7448.0
842.0 7448.0
941.0 7448.0
949.0 7448.0
1442.0 7448.0
347.0 7449.0
725.0 7449.0
1016.0 7449.0
1254.0 7449.0
680.0 7450.0
950.0 7450.0
991.0 7450.0
998.0 7450.0
1163.0 7450.0
1172.0 7450.0
1253.0 7450.0
1345.0 7450.0
1423.0 7450.0
679.0 7451.0
729.0 7451.0
763.0 7451.0
1442.0 7451.0
456.0 7452.0
734.0 7452.0
1001.0 7452.0
1156.0 7452.0
1226.0 7452.0
680.0 7453.0
704.0 7453.0
735.0 7453.0
973.0 7453.0
1087.0 7453.0
1105.0 7453.0
1204.0 7453.0
717.0 7454.0
719.0 7454.0
1225.0 7454.0
1442.0 7454.0
714.0 7455.0
763.0 7455.0
852.0 7455.0
1118.0 7455.0
1174.0 7455.0
1418.0 7455.0
1445.0 7455.0
680.0 7456.0
850.0 7456.0
860.0 7456.0
959.0 7456.0
1010.0 7456.0
1067.0 7456.0
1404.0 7456.0
738.0 7457.0
837.0 7457.0
843.0 7457.0
857.0 7457.0
863.0 7457.0
866.0 7457.0
1075.0 7457.0
1088.0 7457.0
1442.0 7457.0
763.0 7458.0
841.0 7458.0
861.0 7458.0
1165.0 7458.0
1244.0 7458.0
1251.0 7458.0
680.0 7459.0
1213.0 7459.0
466.0 7460.0
880.0 7460.0
1038.0 7460.0
1114.0 7460.0
1222.0 7460.0
1340.0 7460.0
1355.0 7460.0
1442.0 7460.0
599.0 7461.0
763.0 7461.0
942.0 7461.0
1117.0 7461.0
1148.0 7461.0
426.0 7462.0
591.0 7462.0
680.0 7462.0
736.0 7462.0
832.0 7462.0
983.0 7462.0
1068.0 7462.0
1390.0 7462.0
965.0 7463.0
1442.0 7463.0
763.0 7464.0
949.0 7464.0
1012.0 7464.0
1084.0 7464.0
1097.0 7464.0
1135.0 7464.0
1337.0 7464.0
680.0 7465.0
725.0 7465.0
1347.0 7465.0
941.0 7466.0
950.0 7466.0
964.0 7466.0
1205.0 7466.0
1223.0 7466.0
1238.0 7466.0
1254.0 7466.0
1263.0 7466.0
1417.0 7466.0
1442.0 7466.0
347.0 7467.0
478.0 7467.0
763.0 7467.0
820.0 7467.0
842.0 7467.0
872.0 7467.0
991.0 7467.0
680.0 7468.0
851.0 7468.0
866.0 7468.0
1016.0 7468.0
1105.0 7468.0
1172.0 7468.0
1226.0 7468.0
1345.0 7468.0
1423.0 7468.0
735.0 7469.0
973.0 7469.0
1253.0 7469.0
1442.0 7469.0
456.0 7470.0
763.0 7470.0
1001.0 7470.0
1156.0 7470.0
1204.0 7470.0
475.0 7471.0
680.0 7471.0
714.0 7471.0
762.0 7471.0
852.0 7471.0
886.0 7471.0
1002.0 7471.0
1087.0 7471.0
1118.0 7471.0
1236.0 7471.0
695.0 7472.0
744.0 7472.0
857.0 7472.0
860.0 7472.0
953.0 7472.0
1442.0 7472.0
671.0 7473.0
763.0 7473.0
959.0 7473.0
1022.0 7473.0
1075.0 7473.0
1262.0 7473.0
1418.0 7473.0
1420.0 7473.0
601.0 7474.0
680.0 7474.0
696.0 7474.0
738.0 7474.0
1088.0 7474.0
1127.0 7474.0
1251.0 7474.0
1404.0 7474.0
1442.0 7475.0
434.0 7476.0
763.0 7476.0
827.0 7476.0
843.0 7476.0
960.0 7476.0
1165.0 7476.0
1222.0 7476.0
1434.0 7476.0
680.0 7477.0
754.0 7477.0
841.0 7477.0
861.0 7477.0
880.0 7477.0
1038.0 7477.0
1114.0 7477.0
1241.0 7477.0
1340.0 7477.0
591.0 7478.0
599.0 7478.0
726.0 7478.0
839.0 7478.0
864.0 7478.0
866.0 7478.0
994.0 7478.0
1068.0 7478.0
1115.0 7478.0
1390.0 7478.0
1442.0 7478.0
241.0 7479.0
615.0 7479.0
736.0 7479.0
763.0 7479.0
819.0 7479.0
889.0 7479.0
949.0 7479.0
1436.0 7479.0
680.0 7480.0
709.0 7480.0
725.0 7480.0
1012.0 7480.0
1196.0 7480.0
1374.0 7480.0
718.0 7481.0
1134.0 7481.0
1337.0 7481.0
1442.0 7481.0
334.0 7482.0
632.0 7482.0
833.0 7482.0
883.0 7482.0
989.0 7482.0
1105.0 7482.0
1252.0 7482.0
1305.0 7482.0
680.0 7483.0
763.0 7483.0
950.0 7483.0
981.0 7483.0
991.0 7483.0
1018.0 7483.0
1135.0 7483.0
1254.0 7483.0
347.0 7484.0
598.0 7484.0
1110.0 7484.0
1226.0 7484.0
1442.0 7484.0
577.0 7485.0
735.0 7485.0
842.0 7485.0
941.0 7485.0
973.0 7485.0
1172.0 7485.0
1417.0 7485.0
428.0 7486.0
680.0 7486.0
763.0 7486.0
1016.0 7486.0
1345.0 7486.0
1423.0 7486.0
588.0 7487.0
714.0 7487.0
852.0 7487.0
857.0 7487.0
1156.0 7487.0
1204.0 7487.0
1442.0 7487.0
456.0 7488.0
860.0 7488.0
866.0 7488.0
985.0 7488.0
1001.0 7488.0
1118.0 7488.0
680.0 7489.0
763.0 7489.0
1087.0 7489.0
1253.0 7489.0
1107.0 7490.0
1442.0 7490.0
738.0 7491.0
959.0 7491.0
1075.0 7491.0
1418.0 7491.0
680.0 7492.0
763.0 7492.0
1222.0 7492.0
1251.0 7492.0
1257.0 7492.0
1404.0 7492.0
1088.0 7493.0
1114.0 7493.0
1225.0 7493.0
1352.0 7493.0
1442.0 7493.0
801.0 7494.0
843.0 7494.0
847.0 7494.0
949.0 7494.0
1340.0 7494.0
591.0 7495.0
599.0 7495.0
680.0 7495.0
763.0 7495.0
880.0 7495.0
1038.0 7495.0
1068.0 7495.0
1165.0 7495.0
1390.0 7495.0
1415.0 7495.0
1439.0 7496.0
1442.0 7496.0
235.0 7497.0
725.0 7497.0
736.0 7497.0
861.0 7497.0
1012.0 7497.0
1105.0 7497.0
1243.0 7497.0
568.0 7498.0
680.0 7498.0
698.0 7498.0
763.0 7498.0
841.0 7498.0
625.0 7499.0
866.0 7499.0
1337.0 7499.0
1442.0 7499.0
1446.0 7499.0
991.0 7500.0
1226.0 7500.0
1254.0 7500.0
347.0 7501.0
677.0 7501.0
680.0 7501.0
735.0 7501.0
763.0 7501.0
950.0 7501.0
973.0 7501.0
992.0 7501.0
1135.0 7501.0
714.0 7502.0
857.0 7502.0
1172.0 7502.0
1442.0 7502.0
445.0 7503.0
467.0 7503.0
558.0 7503.0
612.0 7503.0
852.0 7503.0
860.0 7503.0
680.0 7504.0
763.0 7504.0
842.0 7504.0
1156.0 7504.0
1345.0 7504.0
1417.0 7504.0
1423.0 7504.0
870.0 7505.0
894.0 7505.0
941.0 7505.0
1001.0 7505.0
1016.0 7505.0
1204.0 7505.0
1442.0 7505.0
456.0 7506.0
705.0 7506.0
1118.0 7506.0
680.0 7507.0
763.0 7507.0
975.0 7507.0
1087.0 7507.0
1433.0 7507.0
738.0 7508.0
1418.0 7508.0
1442.0 7508.0
866.0 7509.0
959.0 7509.0
1075.0 7509.0
1222.0 7509.0
1251.0 7509.0
1253.0 7509.0
680.0 7510.0
763.0 7510.0
851.0 7510.0
1114.0 7510.0
1340.0 7510.0
1404.0 7510.0
1419.0 7510.0
178.0 7511.0
591.0 7511.0
717.0 7511.0
719.0 7511.0
880.0 7511.0
949.0 7511.0
1014.0 7511.0
1088.0 7511.0
1442.0 7511.0
599.0 7512.0
1038.0 7512.0
1068.0 7512.0
1105.0 7512.0
1390.0 7512.0
725.0 7513.0
763.0 7513.0
843.0 7513.0
881.0 7513.0
951.0 7513.0
1165.0 7513.0
680.0 7514.0
1012.0 7514.0
1442.0 7514.0
589.0 7515.0
605.0 7515.0
736.0 7515.0
861.0 7515.0
763.0 7516.0
850.0 7516.0
991.0 7516.0
1226.0 7516.0
1337.0 7516.0
735.0 7517.0
857.0 7517.0
1254.0 7517.0
1442.0 7517.0
347.0 7518.0
680.0 7518.0
714.0 7518.0
734.0 7518.0
841.0 7518.0
973.0 7518.0
763.0 7519.0
860.0 7519.0
950.0 7519.0
1172.0 7519.0
852.0 7520.0
866.0 7520.0
1135.0 7520.0
1442.0 7520.0
1136.0 7521.0
1156.0 7521.0
680.0 7522.0
763.0 7522.0
1001.0 7522.0
1423.0 7522.0
1016.0 7523.0
1345.0 7523.0
1442.0 7523.0
466.0 7524.0
1204.0 7524.0
1388.0 7524.0
1417.0 7524.0
456.0 7525.0
680.0 7525.0
763.0 7525.0
842.0 7525.0
1118.0 7525.0
1148.0 7525.0
1355.0 7525.0
941.0 7526.0
1087.0 7526.0
1174.0 7526.0
1251.0 7526.0
1442.0 7526.0
738.0 7527.0
863.0 7527.0
880.0 7527.0
1222.0 7527.0
1114.0 7528.0
1253.0 7528.0
1404.0 7528.0
1418.0 7528.0
591.0 7529.0
680.0 7529.0
725.0 7529.0
763.0 7529.0
1038.0 7529.0
1075.0 7529.0
1105.0 7529.0
1340.0 7529.0
1390.0 7529.0
1442.0 7529.0
949.0 7530.0
959.0 7530.0
599.0 7531.0
866.0 7531.0
1012.0 7531.0
1165.0 7531.0
763.0 7532.0
1068.0 7532.0
1088.0 7532.0
1442.0 7532.0
680.0 7533.0
735.0 7534.0
843.0 7534.0
1226.0 7534.0
736.0 7535.0
763.0 7535.0
857.0 7535.0
991.0 7535.0
1115.0 7535.0
1337.0 7535.0
1442.0 7535.0
714.0 7536.0
861.0 7536.0
1254.0 7536.0
680.0 7537.0
973.0 7537.0
1172.0 7537.0
1447.0 7537.0
860.0 7538.0
1442.0 7538.0
347.0 7539.0
763.0 7539.0
1156.0 7539.0
852.0 7540.0
950.0 7540.0
965.0 7540.0
1001.0 7540.0
680.0 7541.0
729.0 7541.0
1442.0 7541.0
763.0 7542.0
1016.0 7542.0
1135.0 7542.0
1423.0 7542.0
841.0 7543.0
866.0 7543.0
1251.0 7543.0
1345.0 7544.0
1442.0 7544.0
680.0 7545.0
763.0 7545.0
880.0 7545.0
985.0 7545.0
725.0 7546.0
1204.0 7546.0
1404.0 7546.0
456.0 7547.0
1038.0 7547.0
1087.0 7547.0
1105.0 7547.0
1114.0 7547.0
1118.0 7547.0
1222.0 7547.0
1390.0 7547.0
1417.0 7547.0
1442.0 7547.0
738.0 7548.0
763.0 7548.0
842.0 7548.0
941.0 7548.0
1253.0 7548.0
1340.0 7548.0
680.0 7549.0
949.0 7549.0
998.0 7549.0
1012.0 7549.0
1418.0 7549.0
591.0 7550.0
1165.0 7550.0
1225.0 7550.0
1442.0 7550.0
735.0 7551.0
763.0 7551.0
1075.0 7551.0
959.0 7552.0
1004.0 7552.0
599.0 7553.0
680.0 7553.0
1068.0 7553.0
1088.0 7553.0
1226.0 7553.0
1442.0 7553.0
857.0 7554.0
736.0 7555.0
763.0 7555.0
851.0 7555.0
866.0 7555.0
991.0 7555.0
1172.0 7555.0
714.0 7556.0
1254.0 7556.0
1337.0 7556.0
1442.0 7556.0
680.0 7557.0
843.0 7557.0
973.0 7557.0
763.0 7558.0
860.0 7558.0
1001.0 7558.0
1156.0 7558.0
1442.0 7559.0
852.0 7560.0
861.0 7560.0
680.0 7561.0
763.0 7561.0
950.0 7561.0
1251.0 7561.0
347.0 7562.0
880.0 7562.0
1016.0 7562.0
1442.0 7562.0
725.0 7563.0
1423.0 7563.0
763.0 7564.0
1241.0 7564.0
1404.0 7564.0
680.0 7565.0
819.0 7565.0
1038.0 7565.0
1135.0 7565.0
1390.0 7565.0
1442.0 7565.0
1012.0 7566.0
1105.0 7566.0
763.0 7567.0
866.0 7567.0
1114.0 7567.0
1204.0 7567.0
1222.0 7567.0
1345.0 7567.0
456.0 7568.0
841.0 7568.0
1087.0 7568.0
1238.0 7568.0
1253.0 7568.0
1340.0 7568.0
1442.0 7568.0
680.0 7569.0
735.0 7569.0
949.0 7569.0
1118.0 7569.0
1165.0 7569.0
591.0 7570.0
738.0 7571.0
763.0 7571.0
941.0 7571.0
1417.0 7571.0
1418.0 7571.0
1442.0 7571.0
842.0 7572.0
680.0 7573.0
857.0 7573.0
1075.0 7573.0
1172.0 7573.0
1226.0 7573.0
763.0 7574.0
1068.0 7574.0
1442.0 7574.0
599.0 7575.0
959.0 7575.0
991.0 7575.0
1243.0 7575.0
1263.0 7575.0
714.0 7576.0
1001.0 7576.0
1088.0 7576.0
1156.0 7576.0
680.0 7577.0
736.0 7577.0
763.0 7577.0
1254.0 7577.0
1337.0 7577.0
1442.0 7577.0
860.0 7578.0
973.0 7578.0
866.0 7579.0
1251.0 7579.0
725.0 7580.0
763.0 7580.0
880.0 7580.0
1442.0 7580.0
680.0 7581.0
843.0 7581.0
852.0 7581.0
1016.0 7581.0
1355.0 7582.0
719.0 7583.0
763.0 7583.0
950.0 7583.0
1038.0 7583.0
1390.0 7583.0
1404.0 7583.0
1442.0 7583.0
347.0 7584.0
861.0 7584.0
1012.0 7584.0
1423.0 7584.0
680.0 7585.0
1105.0 7585.0
735.0 7586.0
744.0 7586.0
864.0 7586.0
1442.0 7586.0
1446.0 7586.0
763.0 7587.0
1114.0 7587.0
1222.0 7587.0
1253.0 7587.0
951.0 7588.0
1135.0 7588.0
1165.0 7588.0
1204.0 7588.0
1340.0 7588.0
680.0 7589.0
949.0 7589.0
1087.0 7589.0
1345.0 7589.0
1442.0 7589.0
456.0 7590.0
591.0 7590.0
763.0 7590.0
857.0 7591.0
866.0 7591.0
1118.0 7591.0
1172.0 7591.0
1236.0 7591.0
1434.0 7591.0
1442.0 7592.0
680.0 7593.0
738.0 7593.0
763.0 7593.0
841.0 7593.0
1226.0 7593.0
1418.0 7593.0
1001.0 7594.0
1156.0 7594.0
941.0 7595.0
991.0 7595.0
1068.0 7595.0
1075.0 7595.0
1417.0 7595.0
1442.0 7595.0
714.0 7596.0
763.0 7596.0
842.0 7596.0
599.0 7597.0
725.0 7597.0
880.0 7597.0
1251.0 7597.0
680.0 7598.0
860.0 7598.0
959.0 7598.0
973.0 7598.0
1088.0 7598.0
1134.0 7598.0
1254.0 7598.0
1337.0 7598.0
736.0 7599.0
851.0 7600.0
1016.0 7600.0
1390.0 7600.0
