347.0 7838.0
347.0 7868.0
347.0 7904.0
347.0 7949.0
347.0 7994.0
347.0 8029.0
347.0 8064.0
347.0 8097.0
347.0 8125.0
347.0 8153.0
347.0 8179.0
456.0 7839.0
456.0 7867.0
456.0 7902.0
456.0 7944.0
456.0 7983.0
456.0 8019.0
456.0 8054.0
456.0 8088.0
456.0 8115.0
456.0 8143.0
456.0 8170.0
456.0 8196.0
591.0 7838.0
591.0 7864.0
591.0 7894.0
591.0 7931.0
591.0 7969.0
591.0 8002.0
591.0 8033.0
591.0 8063.0
591.0 8093.0
591.0 8118.0
591.0 8143.0
591.0 8167.0
591.0 8190.0
599.0 7838.0
599.0 7867.0
599.0 7902.0
599.0 7946.0
599.0 7988.0
599.0 8023.0
599.0 8057.0
599.0 8091.0
599.0 8119.0
599.0 8147.0
599.0 8172.0
599.0 8198.0
680.0 7807.0
680.0 7812.0
680.0 7816.0
680.0 7820.0
680.0 7824.0
680.0 7828.0
680.0 7832.0
680.0 7837.0
680.0 7841.0
680.0 7847.0
680.0 7852.0
680.0 7857.0
680.0 7862.0
680.0 7867.0
680.0 7872.0
680.0 7877.0
680.0 7882.0
680.0 7887.0
680.0 7892.0
680.0 7897.0
680.0 7903.0
680.0 7909.0
680.0 7915.0
680.0 7921.0
680.0 7927.0
680.0 7933.0
680.0 7939.0
680.0 7945.0
680.0 7951.0
680.0 7957.0
680.0 7963.0
680.0 7969.0
680.0 7975.0
680.0 7981.0
680.0 7987.0
680.0 7992.0
680.0 7997.0
680.0 8002.0
680.0 8007.0
680.0 8012.0
680.0 8017.0
680.0 8022.0
680.0 8027.0
680.0 8032.0
680.0 8037.0
680.0 8042.0
680.0 8047.0
680.0 8052.0
680.0 8057.0
680.0 8062.0
680.0 8067.0
680.0 8072.0
680.0 8077.0
680.0 8082.0
680.0 8086.0
680.0 8090.0
680.0 8094.0
680.0 8098.0
680.0 8102.0
680.0 8106.0
680.0 8110.0
680.0 8114.0
680.0 8118.0
680.0 8122.0
680.0 8126.0
680.0 8130.0
680.0 8134.0
680.0 8138.0
680.0 8142.0
680.0 8146.0
680.0 8150.0
680.0 8154.0
680.0 8158.0
680.0 8162.0
680.0 8166.0
680.0 8170.0
680.0 8174.0
680.0 8178.0
680.0 8182.0
680.0 8186.0
680.0 8190.0
680.0 8194.0
714.0 7840.0
714.0 7863.0
714.0 7886.0
714.0 7910.0
714.0 7937.0
714.0 7963.0
714.0 7988.0
714.0 8012.0
714.0 8042.0
714.0 8073.0
714.0 8101.0
714.0 8127.0
714.0 8152.0
714.0 8178.0
719.0 7969.0
725.0 7837.0
725.0 7853.0
725.0 7872.0
725.0 7892.0
725.0 7912.0
725.0 7932.0
725.0 7953.0
725.0 7973.0
725.0 7994.0
725.0 8016.0
725.0 8040.0
725.0 8063.0
725.0 8087.0
725.0 8113.0
725.0 8139.0
725.0 8163.0
725.0 8187.0
729.0 7958.0
735.0 7835.0
735.0 7852.0
735.0 7872.0
735.0 7893.0
735.0 7913.0
735.0 7934.0
735.0 7954.0
735.0 7974.0
735.0 7994.0
735.0 8016.0
735.0 8041.0
735.0 8065.0
735.0 8089.0
735.0 8115.0
735.0 8141.0
735.0 8167.0
735.0 8191.0
736.0 7837.0
736.0 7864.0
736.0 7898.0
736.0 7939.0
736.0 7977.0
736.0 8013.0
736.0 8047.0
736.0 8080.0
736.0 8109.0
736.0 8136.0
736.0 8162.0
736.0 8188.0
738.0 7841.0
738.0 7867.0
738.0 7893.0
738.0 7922.0
738.0 7951.0
738.0 7981.0
738.0 8008.0
738.0 8042.0
738.0 8078.0
738.0 8108.0
738.0 8137.0
738.0 8166.0
738.0 8195.0
763.0 7806.0
763.0 7810.0
763.0 7813.0
763.0 7817.0
763.0 7820.0
763.0 7824.0
763.0 7827.0
763.0 7830.0
763.0 7833.0
763.0 7836.0
763.0 7839.0
763.0 7842.0
763.0 7845.0
763.0 7848.0
763.0 7852.0
763.0 7856.0
763.0 7860.0
763.0 7864.0
763.0 7868.0
763.0 7872.0
763.0 7876.0
763.0 7880.0
763.0 7884.0
763.0 7888.0
763.0 7892.0
763.0 7896.0
763.0 7900.0
763.0 7904.0
763.0 7908.0
763.0 7912.0
763.0 7916.0
763.0 7920.0
763.0 7924.0
763.0 7928.0
763.0 7932.0
763.0 7936.0
763.0 7940.0
763.0 7944.0
763.0 7948.0
763.0 7952.0
763.0 7956.0
763.0 7960.0
763.0 7964.0
763.0 7968.0
763.0 7972.0
763.0 7976.0
763.0 7980.0
763.0 7984.0
763.0 7988.0
763.0 7992.0
763.0 7996.0
763.0 8000.0
763.0 8004.0
763.0 8008.0
763.0 8012.0
763.0 8016.0
763.0 8020.0
763.0 8024.0
763.0 8028.0
763.0 8032.0
763.0 8036.0
763.0 8040.0
763.0 8044.0
763.0 8048.0
763.0 8052.0
763.0 8056.0
763.0 8060.0
763.0 8064.0
763.0 8068.0
763.0 8072.0
763.0 8076.0
763.0 8080.0
763.0 8084.0
763.0 8088.0
763.0 8092.0
763.0 8096.0
763.0 8100.0
763.0 8104.0
763.0 8108.0
763.0 8112.0
763.0 8116.0
763.0 8120.0
763.0 8124.0
763.0 8128.0
763.0 8132.0
763.0 8136.0
763.0 8140.0
763.0 8144.0
763.0 8148.0
763.0 8152.0
763.0 8155.0
763.0 8159.0
763.0 8163.0
763.0 8166.0
763.0 8170.0
763.0 8174.0
763.0 8178.0
763.0 8182.0
763.0 8185.0
763.0 8189.0
763.0 8193.0
763.0 8196.0
819.0 8008.0
841.0 7840.0
841.0 7879.0
841.0 7938.0
841.0 7991.0
841.0 8038.0
841.0 8079.0
841.0 8111.0
841.0 8142.0
841.0 8172.0
842.0 7840.0
842.0 7869.0
842.0 7897.0
842.0 7929.0
842.0 7961.0
842.0 7993.0
842.0 8026.0
842.0 8064.0
842.0 8098.0
842.0 8130.0
842.0 8162.0
842.0 8194.0
843.0 7839.0
843.0 7870.0
843.0 7907.0
843.0 7955.0
843.0 8000.0
843.0 8035.0
843.0 8071.0
843.0 8102.0
843.0 8131.0
843.0 8160.0
843.0 8188.0
851.0 7872.0
851.0 7926.0
851.0 7984.0
852.0 7840.0
852.0 7864.0
852.0 7888.0
852.0 7913.0
852.0 7940.0
852.0 7966.0
852.0 7993.0
852.0 8021.0
852.0 8052.0
852.0 8083.0
852.0 8110.0
852.0 8136.0
852.0 8163.0
852.0 8190.0
857.0 7839.0
857.0 7860.0
857.0 7882.0
857.0 7904.0
857.0 7929.0
857.0 7954.0
857.0 7978.0
857.0 8001.0
857.0 8026.0
857.0 8054.0
857.0 8083.0
857.0 8109.0
857.0 8133.0
857.0 8157.0
857.0 8182.0
860.0 7837.0
860.0 7861.0
860.0 7890.0
860.0 7921.0
860.0 7956.0
860.0 7992.0
860.0 8023.0
860.0 8054.0
860.0 8084.0
860.0 8109.0
860.0 8134.0
860.0 8159.0
860.0 8183.0
861.0 7838.0
861.0 7869.0
861.0 7909.0
861.0 7962.0
861.0 8008.0
861.0 8048.0
861.0 8087.0
861.0 8117.0
861.0 8147.0
861.0 8175.0
866.0 7827.0
866.0 7840.0
866.0 7852.0
866.0 7865.0
866.0 7879.0
866.0 7893.0
866.0 7908.0
866.0 7923.0
866.0 7938.0
866.0 7953.0
866.0 7968.0
866.0 7983.0
866.0 7998.0
866.0 8013.0
866.0 8029.0
866.0 8045.0
866.0 8061.0
866.0 8077.0
866.0 8092.0
866.0 8107.0
866.0 8122.0
866.0 8137.0
866.0 8152.0
866.0 8166.0
866.0 8180.0
866.0 8194.0
880.0 7837.0
880.0 7854.0
880.0 7874.0
880.0 7894.0
880.0 7915.0
880.0 7936.0
880.0 7957.0
880.0 7978.0
880.0 7998.0
880.0 8022.0
880.0 8047.0
880.0 8072.0
880.0 8098.0
880.0 8125.0
880.0 8152.0
880.0 8177.0
941.0 7840.0
941.0 7867.0
941.0 7894.0
941.0 7924.0
941.0 7954.0
941.0 7984.0
941.0 8012.0
941.0 8046.0
941.0 8081.0
941.0 8111.0
941.0 8141.0
941.0 8171.0
949.0 7840.0
949.0 7863.0
949.0 7886.0
949.0 7909.0
949.0 7934.0
949.0 7958.0
949.0 7984.0
949.0 8008.0
949.0 8037.0
949.0 8067.0
949.0 8095.0
949.0 8120.0
949.0 8146.0
949.0 8172.0
949.0 8198.0
950.0 7839.0
950.0 7866.0
950.0 7892.0
950.0 7920.0
950.0 7950.0
950.0 7978.0
950.0 8005.0
950.0 8038.0
950.0 8071.0
950.0 8102.0
950.0 8131.0
950.0 8161.0
950.0 8190.0
951.0 7899.0
951.0 7999.0
959.0 7839.0
959.0 7866.0
959.0 7893.0
959.0 7923.0
959.0 7953.0
959.0 7982.0
959.0 8012.0
959.0 8047.0
959.0 8083.0
959.0 8114.0
959.0 8144.0
959.0 8174.0
965.0 7960.0
973.0 7838.0
973.0 7861.0
973.0 7886.0
973.0 7910.0
973.0 7937.0
973.0 7963.0
973.0 7991.0
973.0 8018.0
973.0 8048.0
973.0 8078.0
973.0 8106.0
973.0 8133.0
973.0 8159.0
973.0 8185.0
985.0 7952.0
991.0 7838.0
991.0 7862.0
991.0 7886.0
991.0 7910.0
991.0 7937.0
991.0 7963.0
991.0 7989.0
991.0 8014.0
991.0 8044.0
991.0 8075.0
991.0 8103.0
991.0 8129.0
991.0 8155.0
991.0 8181.0
1001.0 7835.0
1001.0 7853.0
1001.0 7874.0
1001.0 7896.0
1001.0 7917.0
1001.0 7938.0
1001.0 7959.0
1001.0 7980.0
1001.0 8001.0
1001.0 8025.0
1001.0 8052.0
1001.0 8079.0
1001.0 8106.0
1001.0 8134.0
1001.0 8161.0
1001.0 8189.0
1012.0 7834.0
1012.0 7851.0
1012.0 7871.0
1012.0 7892.0
1012.0 7913.0
1012.0 7934.0
1012.0 7955.0
1012.0 7976.0
1012.0 7997.0
1012.0 8021.0
1012.0 8047.0
1012.0 8072.0
1012.0 8098.0
1012.0 8125.0
1012.0 8152.0
1012.0 8177.0
1016.0 7837.0
1016.0 7856.0
1016.0 7878.0
1016.0 7902.0
1016.0 7926.0
1016.0 7950.0
1016.0 7974.0
1016.0 7998.0
1016.0 8026.0
1016.0 8055.0
1016.0 8083.0
1016.0 8114.0
1016.0 8146.0
1016.0 8175.0
1038.0 7835.0
1038.0 7852.0
1038.0 7872.0
1038.0 7893.0
1038.0 7913.0
1038.0 7933.0
1038.0 7953.0
1038.0 7973.0
1038.0 7993.0
1038.0 8015.0
1038.0 8039.0
1038.0 8065.0
1038.0 8091.0
1038.0 8118.0
1038.0 8144.0
1038.0 8169.0
1038.0 8195.0
1068.0 7840.0
1068.0 7865.0
1068.0 7890.0
1068.0 7918.0
1068.0 7946.0
1068.0 7973.0
1068.0 8000.0
1068.0 8031.0
1068.0 8064.0
1068.0 8095.0
1068.0 8123.0
1068.0 8151.0
1068.0 8179.0
1075.0 7840.0
1075.0 7866.0
1075.0 7892.0
1075.0 7920.0
1075.0 7949.0
1075.0 7979.0
1075.0 8006.0
1075.0 8038.0
1075.0 8072.0
1075.0 8103.0
1075.0 8132.0
1075.0 8162.0
1075.0 8191.0
1087.0 7840.0
1087.0 7866.0
1087.0 7891.0
1087.0 7918.0
1087.0 7948.0
1087.0 7977.0
1087.0 8004.0
1087.0 8037.0
1087.0 8071.0
1087.0 8102.0
1087.0 8131.0
1087.0 8161.0
1087.0 8190.0
1088.0 7840.0
1088.0 7866.0
1088.0 7892.0
1088.0 7920.0
1088.0 7949.0
1088.0 7978.0
1088.0 8005.0
1088.0 8037.0
1088.0 8071.0
1088.0 8102.0
1088.0 8131.0
1088.0 8161.0
1088.0 8190.0
1105.0 7838.0
1105.0 7859.0
1105.0 7880.0
1105.0 7902.0
1105.0 7926.0
1105.0 7950.0
1105.0 7974.0
1105.0 7998.0
1105.0 8024.0
1105.0 8052.0
1105.0 8081.0
1105.0 8106.0
1105.0 8130.0
1105.0 8154.0
1105.0 8178.0
1114.0 7838.0
1114.0 7862.0
1114.0 7887.0
1114.0 7913.0
1114.0 7940.0
1114.0 7967.0
1114.0 7993.0
1114.0 8020.0
1114.0 8051.0
1114.0 8083.0
1114.0 8112.0
1114.0 8140.0
1114.0 8167.0
1114.0 8193.0
1118.0 7839.0
1118.0 7865.0
1118.0 7892.0
1118.0 7921.0
1118.0 7951.0
1118.0 7980.0
1118.0 8007.0
1118.0 8042.0
1118.0 8078.0
1118.0 8109.0
1118.0 8139.0
1118.0 8169.0
1118.0 8198.0
1135.0 7840.0
1135.0 7867.0
1135.0 7894.0
1135.0 7923.0
1135.0 7953.0
1135.0 7983.0
1135.0 8013.0
1135.0 8049.0
1135.0 8084.0
1135.0 8116.0
1135.0 8148.0
1135.0 8180.0
1156.0 7834.0
1156.0 7852.0
1156.0 7873.0
1156.0 7894.0
1156.0 7915.0
1156.0 7937.0
1156.0 7958.0
1156.0 7979.0
1156.0 8000.0
1156.0 8025.0
1156.0 8051.0
1156.0 8077.0
1156.0 8104.0
1156.0 8131.0
1156.0 8158.0
1156.0 8185.0
1165.0 7835.0
1165.0 7853.0
1165.0 7875.0
1165.0 7898.0
1165.0 7920.0
1165.0 7943.0
1165.0 7965.0
1165.0 7987.0
1165.0 8009.0
1165.0 8036.0
1165.0 8063.0
1165.0 8091.0
1165.0 8120.0
1165.0 8149.0
1165.0 8175.0
1172.0 7834.0
1172.0 7852.0
1172.0 7872.0
1172.0 7893.0
1172.0 7914.0
1172.0 7935.0
1172.0 7956.0
1172.0 7977.0
1172.0 7998.0
1172.0 8022.0
1172.0 8049.0
1172.0 8075.0
1172.0 8102.0
1172.0 8129.0
1172.0 8156.0
1172.0 8182.0
1174.0 8005.0
1204.0 7840.0
1204.0 7866.0
1204.0 7892.0
1204.0 7920.0
1204.0 7950.0
1204.0 7980.0
1204.0 8007.0
1204.0 8039.0
1204.0 8073.0
1204.0 8104.0
1204.0 8134.0
1204.0 8163.0
1204.0 8192.0
1222.0 7839.0
1222.0 7863.0
1222.0 7888.0
1222.0 7913.0
1222.0 7940.0
1222.0 7968.0
1222.0 7995.0
1222.0 8023.0
1222.0 8054.0
1222.0 8085.0
1222.0 8113.0
1222.0 8141.0
1222.0 8169.0
1222.0 8196.0
1225.0 7966.0
1226.0 7838.0
1226.0 7862.0
1226.0 7886.0
1226.0 7911.0
1226.0 7937.0
1226.0 7964.0
1226.0 7991.0
1226.0 8018.0
1226.0 8051.0
1226.0 8082.0
1226.0 8110.0
1226.0 8137.0
1226.0 8163.0
1226.0 8189.0
1243.0 7961.0
1251.0 7835.0
1251.0 7852.0
1251.0 7871.0
1251.0 7891.0
1251.0 7911.0
1251.0 7932.0
1251.0 7953.0
1251.0 7974.0
1251.0 7995.0
1251.0 8019.0
1251.0 8046.0
1251.0 8071.0
1251.0 8096.0
1251.0 8122.0
1251.0 8149.0
1251.0 8174.0
1251.0 8200.0
1253.0 7835.0
1253.0 7854.0
1253.0 7877.0
1253.0 7900.0
1253.0 7923.0
1253.0 7946.0
1253.0 7969.0
1253.0 7993.0
1253.0 8019.0
1253.0 8048.0
1253.0 8077.0
1253.0 8108.0
1253.0 8139.0
1253.0 8168.0
1253.0 8197.0
1254.0 7838.0
1254.0 7863.0
1254.0 7888.0
1254.0 7915.0
1254.0 7943.0
1254.0 7969.0
1254.0 7997.0
1254.0 8028.0
1254.0 8061.0
1254.0 8093.0
1254.0 8121.0
1254.0 8149.0
1254.0 8177.0
1337.0 7838.0
1337.0 7863.0
1337.0 7888.0
1337.0 7914.0
1337.0 7941.0
1337.0 7969.0
1337.0 7996.0
1337.0 8025.0
1337.0 8058.0
1337.0 8089.0
1337.0 8116.0
1337.0 8144.0
1337.0 8172.0
1337.0 8200.0
1340.0 7838.0
1340.0 7862.0
1340.0 7887.0
1340.0 7913.0
1340.0 7940.0
1340.0 7966.0
1340.0 7993.0
1340.0 8022.0
1340.0 8054.0
1340.0 8087.0
1340.0 8115.0
1340.0 8143.0
1340.0 8171.0
1340.0 8199.0
1345.0 7838.0
1345.0 7864.0
1345.0 7890.0
1345.0 7917.0
1345.0 7947.0
1345.0 7975.0
1345.0 8003.0
1345.0 8035.0
1345.0 8068.0
1345.0 8100.0
1345.0 8128.0
1345.0 8156.0
1345.0 8184.0
1355.0 7881.0
1355.0 7947.0
1390.0 7835.0
1390.0 7852.0
1390.0 7871.0
1390.0 7891.0
1390.0 7912.0
1390.0 7933.0
1390.0 7954.0
1390.0 7974.0
1390.0 7995.0
1390.0 8019.0
1390.0 8045.0
1390.0 8070.0
1390.0 8096.0
1390.0 8122.0
1390.0 8148.0
1390.0 8173.0
1390.0 8199.0
1404.0 7836.0
1404.0 7854.0
1404.0 7875.0
1404.0 7897.0
1404.0 7918.0
1404.0 7940.0
1404.0 7962.0
1404.0 7983.0
1404.0 8004.0
1404.0 8030.0
1404.0 8057.0
1404.0 8083.0
1404.0 8111.0
1404.0 8139.0
1404.0 8166.0
1404.0 8192.0
1417.0 7841.0
1417.0 7869.0
1417.0 7896.0
1417.0 7927.0
1417.0 7958.0
1417.0 7989.0
1417.0 8023.0
1417.0 8062.0
1417.0 8098.0
1417.0 8129.0
1417.0 8161.0
1417.0 8193.0
1418.0 7839.0
1418.0 7865.0
1418.0 7891.0
1418.0 7919.0
1418.0 7949.0
1418.0 7977.0
1418.0 8004.0
1418.0 8036.0
1418.0 8070.0
1418.0 8101.0
1418.0 8130.0
1418.0 8158.0
1418.0 8187.0
1423.0 7838.0
1423.0 7863.0
1423.0 7888.0
1423.0 7915.0
1423.0 7945.0
1423.0 7973.0
1423.0 8000.0
1423.0 8031.0
1423.0 8063.0
1423.0 8096.0
1423.0 8124.0
1423.0 8152.0
1423.0 8180.0
1433.0 7959.0
1434.0 7976.0
1442.0 7806.0
1442.0 7810.0
1442.0 7814.0
1442.0 7817.0
1442.0 7821.0
1442.0 7824.0
1442.0 7828.0
1442.0 7831.0
1442.0 7834.0
1442.0 7837.0
1442.0 7840.0
1442.0 7843.0
1442.0 7846.0
1442.0 7849.0
1442.0 7852.0
1442.0 7855.0
1442.0 7858.0
1442.0 7861.0
1442.0 7864.0
1442.0 7867.0
1442.0 7870.0
1442.0 7873.0
1442.0 7876.0
1442.0 7879.0
1442.0 7882.0
1442.0 7885.0
1442.0 7888.0
1442.0 7891.0
1442.0 7894.0
1442.0 7897.0
1442.0 7900.0
1442.0 7903.0
1442.0 7906.0
1442.0 7909.0
1442.0 7912.0
1442.0 7915.0
1442.0 7918.0
1442.0 7921.0
1442.0 7924.0
1442.0 7927.0
1442.0 7930.0
1442.0 7933.0
1442.0 7936.0
1442.0 7939.0
1442.0 7942.0
1442.0 7945.0
1442.0 7948.0
1442.0 7951.0
1442.0 7954.0
1442.0 7957.0
1442.0 7960.0
1442.0 7963.0
1442.0 7966.0
1442.0 7969.0
1442.0 7972.0
1442.0 7975.0
1442.0 7978.0
1442.0 7981.0
1442.0 7984.0
1442.0 7987.0
1442.0 7990.0
1442.0 7993.0
1442.0 7996.0
1442.0 7999.0
1442.0 8002.0
1442.0 8006.0
1442.0 8010.0
1442.0 8014.0
1442.0 8017.0
1442.0 8021.0
1442.0 8025.0
1442.0 8028.0
1442.0 8032.0
1442.0 8036.0
1442.0 8040.0
1442.0 8044.0
1442.0 8047.0
1442.0 8051.0
1442.0 8055.0
1442.0 8058.0
1442.0 8062.0
1442.0 8066.0
1442.0 8070.0
1442.0 8074.0
1442.0 8077.0
1442.0 8081.0
1442.0 8085.0
1442.0 8089.0
1442.0 8093.0
1442.0 8097.0
1442.0 8101.0
1442.0 8105.0
1442.0 8109.0
1442.0 8113.0
1442.0 8117.0
1442.0 8121.0
1442.0 8125.0
1442.0 8129.0
1442.0 8133.0
1442.0 8137.0
1442.0 8141.0
1442.0 8145.0
1442.0 8149.0
1442.0 8153.0
1442.0 8157.0
1442.0 8161.0
1442.0 8165.0
1442.0 8169.0
1442.0 8173.0
1442.0 8177.0
1442.0 8181.0
1442.0 8185.0
1442.0 8189.0
1442.0 8193.0
1442.0 8198.0
1446.0 7978.0
