241.0 8557.0
347.0 8439.0
347.0 8461.0
347.0 8483.0
347.0 8504.0
347.0 8525.0
347.0 8546.0
347.0 8567.0
347.0 8588.0
347.0 8614.0
347.0 8647.0
347.0 8686.0
347.0 8730.0
347.0 8774.0
456.0 8440.0
456.0 8461.0
456.0 8482.0
456.0 8503.0
456.0 8525.0
456.0 8546.0
456.0 8567.0
456.0 8589.0
456.0 8615.0
456.0 8648.0
456.0 8687.0
456.0 8731.0
456.0 8776.0
466.0 8556.0
475.0 8526.0
478.0 8551.0
591.0 8439.0
591.0 8459.0
591.0 8478.0
591.0 8499.0
591.0 8520.0
591.0 8540.0
591.0 8560.0
591.0 8580.0
591.0 8604.0
591.0 8632.0
591.0 8664.0
591.0 8703.0
591.0 8742.0
591.0 8782.0
599.0 8439.0
599.0 8460.0
599.0 8481.0
599.0 8502.0
599.0 8522.0
599.0 8543.0
599.0 8565.0
599.0 8586.0
599.0 8610.0
599.0 8641.0
599.0 8681.0
599.0 8729.0
599.0 8777.0
605.0 8568.0
612.0 8505.0
612.0 8586.0
625.0 8489.0
625.0 8565.0
680.0 8407.0
680.0 8412.0
680.0 8416.0
680.0 8420.0
680.0 8424.0
680.0 8428.0
680.0 8432.0
680.0 8436.0
680.0 8440.0
680.0 8444.0
680.0 8448.0
680.0 8452.0
680.0 8456.0
680.0 8460.0
680.0 8464.0
680.0 8468.0
680.0 8472.0
680.0 8476.0
680.0 8480.0
680.0 8484.0
680.0 8488.0
680.0 8492.0
680.0 8496.0
680.0 8500.0
680.0 8504.0
680.0 8508.0
680.0 8512.0
680.0 8516.0
680.0 8520.0
680.0 8524.0
680.0 8528.0
680.0 8532.0
680.0 8536.0
680.0 8540.0
680.0 8544.0
680.0 8548.0
680.0 8552.0
680.0 8556.0
680.0 8560.0
680.0 8564.0
680.0 8568.0
680.0 8572.0
680.0 8576.0
680.0 8580.0
680.0 8584.0
680.0 8588.0
680.0 8592.0
680.0 8596.0
680.0 8600.0
680.0 8604.0
680.0 8608.0
680.0 8613.0
680.0 8617.0
680.0 8623.0
680.0 8628.0
680.0 8633.0
680.0 8638.0
680.0 8643.0
680.0 8648.0
680.0 8653.0
680.0 8658.0
680.0 8663.0
680.0 8669.0
680.0 8675.0
680.0 8681.0
680.0 8687.0
680.0 8693.0
680.0 8699.0
680.0 8705.0
680.0 8711.0
680.0 8717.0
680.0 8723.0
680.0 8729.0
680.0 8735.0
680.0 8741.0
680.0 8747.0
680.0 8753.0
680.0 8759.0
680.0 8765.0
680.0 8771.0
680.0 8777.0
680.0 8783.0
680.0 8789.0
680.0 8795.0
714.0 8444.0
714.0 8470.0
714.0 8495.0
714.0 8521.0
714.0 8547.0
714.0 8572.0
714.0 8597.0
714.0 8624.0
714.0 8660.0
714.0 8726.0
725.0 8440.0
725.0 8460.0
725.0 8480.0
725.0 8500.0
725.0 8519.0
725.0 8539.0
725.0 8559.0
725.0 8578.0
725.0 8600.0
725.0 8624.0
725.0 8649.0
725.0 8683.0
725.0 8717.0
725.0 8752.0
726.0 8526.0
735.0 8438.0
735.0 8458.0
735.0 8477.0
735.0 8497.0
735.0 8517.0
735.0 8537.0
735.0 8557.0
735.0 8577.0
735.0 8598.0
735.0 8622.0
735.0 8649.0
735.0 8681.0
735.0 8714.0
735.0 8746.0
735.0 8787.0
736.0 8438.0
736.0 8459.0
736.0 8480.0
736.0 8502.0
736.0 8523.0
736.0 8544.0
736.0 8565.0
736.0 8587.0
736.0 8612.0
736.0 8644.0
736.0 8681.0
736.0 8724.0
736.0 8765.0
738.0 8444.0
738.0 8473.0
738.0 8502.0
738.0 8530.0
738.0 8559.0
738.0 8587.0
738.0 8615.0
738.0 8654.0
754.0 8547.0
763.0 8406.0
763.0 8410.0
763.0 8414.0
763.0 8417.0
763.0 8421.0
763.0 8424.0
763.0 8428.0
763.0 8431.0
763.0 8434.0
763.0 8437.0
763.0 8440.0
763.0 8443.0
763.0 8446.0
763.0 8449.0
763.0 8452.0
763.0 8455.0
763.0 8458.0
763.0 8461.0
763.0 8464.0
763.0 8467.0
763.0 8470.0
763.0 8473.0
763.0 8476.0
763.0 8479.0
763.0 8482.0
763.0 8485.0
763.0 8488.0
763.0 8491.0
763.0 8494.0
763.0 8497.0
763.0 8500.0
763.0 8503.0
763.0 8506.0
763.0 8509.0
763.0 8512.0
763.0 8515.0
763.0 8518.0
763.0 8521.0
763.0 8524.0
763.0 8527.0
763.0 8530.0
763.0 8533.0
763.0 8536.0
763.0 8539.0
763.0 8542.0
763.0 8545.0
763.0 8548.0
763.0 8551.0
763.0 8554.0
763.0 8557.0
763.0 8560.0
763.0 8563.0
763.0 8566.0
763.0 8569.0
763.0 8572.0
763.0 8575.0
763.0 8578.0
763.0 8581.0
763.0 8584.0
763.0 8588.0
763.0 8592.0
763.0 8596.0
763.0 8599.0
763.0 8603.0
763.0 8607.0
763.0 8610.0
763.0 8614.0
763.0 8618.0
763.0 8622.0
763.0 8626.0
763.0 8629.0
763.0 8633.0
763.0 8637.0
763.0 8641.0
763.0 8645.0
763.0 8649.0
763.0 8653.0
763.0 8657.0
763.0 8661.0
763.0 8665.0
763.0 8669.0
763.0 8673.0
763.0 8677.0
763.0 8681.0
763.0 8685.0
763.0 8689.0
763.0 8693.0
763.0 8697.0
763.0 8701.0
763.0 8705.0
763.0 8709.0
763.0 8713.0
763.0 8717.0
763.0 8721.0
763.0 8725.0
763.0 8729.0
763.0 8733.0
763.0 8737.0
763.0 8741.0
763.0 8745.0
763.0 8749.0
763.0 8753.0
763.0 8757.0
763.0 8761.0
763.0 8765.0
763.0 8769.0
763.0 8773.0
763.0 8777.0
763.0 8781.0
763.0 8785.0
763.0 8790.0
763.0 8795.0
841.0 8440.0
841.0 8464.0
841.0 8488.0
841.0 8512.0
841.0 8536.0
841.0 8560.0
841.0 8583.0
841.0 8611.0
841.0 8651.0
841.0 8699.0
841.0 8756.0
842.0 8443.0
842.0 8476.0
842.0 8508.0
842.0 8540.0
842.0 8571.0
842.0 8604.0
842.0 8644.0
843.0 8440.0
843.0 8463.0
843.0 8485.0
843.0 8507.0
843.0 8529.0
843.0 8551.0
843.0 8572.0
843.0 8595.0
843.0 8622.0
843.0 8657.0
843.0 8703.0
843.0 8751.0
852.0 8442.0
852.0 8468.0
852.0 8493.0
852.0 8518.0
852.0 8544.0
852.0 8570.0
852.0 8596.0
852.0 8624.0
852.0 8659.0
852.0 8741.0
857.0 8443.0
857.0 8468.0
857.0 8492.0
857.0 8516.0
857.0 8540.0
857.0 8566.0
857.0 8590.0
857.0 8614.0
857.0 8644.0
857.0 8719.0
860.0 8438.0
860.0 8457.0
860.0 8477.0
860.0 8497.0
860.0 8517.0
860.0 8537.0
860.0 8557.0
860.0 8577.0
860.0 8598.0
860.0 8622.0
860.0 8653.0
860.0 8687.0
860.0 8729.0
860.0 8770.0
861.0 8439.0
861.0 8462.0
861.0 8485.0
861.0 8507.0
861.0 8529.0
861.0 8551.0
861.0 8573.0
861.0 8597.0
861.0 8628.0
861.0 8665.0
861.0 8713.0
861.0 8765.0
866.0 8428.0
866.0 8442.0
866.0 8455.0
866.0 8468.0
866.0 8481.0
866.0 8494.0
866.0 8507.0
866.0 8520.0
866.0 8533.0
866.0 8546.0
866.0 8559.0
866.0 8572.0
866.0 8585.0
866.0 8599.0
866.0 8613.0
866.0 8628.0
866.0 8644.0
866.0 8661.0
866.0 8681.0
866.0 8700.0
866.0 8720.0
866.0 8739.0
866.0 8760.0
866.0 8781.0
870.0 8494.0
870.0 8573.0
880.0 8441.0
880.0 8462.0
880.0 8482.0
880.0 8502.0
880.0 8522.0
880.0 8543.0
880.0 8564.0
880.0 8585.0
880.0 8609.0
880.0 8635.0
880.0 8667.0
880.0 8701.0
880.0 8735.0
880.0 8776.0
881.0 8514.0
889.0 8525.0
894.0 8489.0
894.0 8570.0
941.0 8444.0
941.0 8475.0
941.0 8505.0
941.0 8535.0
941.0 8565.0
941.0 8595.0
941.0 8633.0
949.0 8443.0
949.0 8469.0
949.0 8495.0
949.0 8521.0
949.0 8546.0
949.0 8571.0
949.0 8597.0
949.0 8625.0
949.0 8668.0
950.0 8443.0
950.0 8472.0
950.0 8500.0
950.0 8529.0
950.0 8559.0
950.0 8588.0
950.0 8620.0
950.0 8674.0
959.0 8443.0
959.0 8473.0
959.0 8504.0
959.0 8534.0
959.0 8564.0
959.0 8594.0
959.0 8625.0
973.0 8441.0
973.0 8467.0
973.0 8493.0
973.0 8519.0
973.0 8544.0
973.0 8569.0
973.0 8595.0
973.0 8623.0
973.0 8658.0
973.0 8729.0
989.0 8591.0
991.0 8442.0
991.0 8469.0
991.0 8495.0
991.0 8521.0
991.0 8547.0
991.0 8573.0
991.0 8599.0
991.0 8628.0
991.0 8669.0
1001.0 8439.0
1001.0 8461.0
1001.0 8483.0
1001.0 8504.0
1001.0 8525.0
1001.0 8546.0
1001.0 8567.0
1001.0 8588.0
1001.0 8613.0
1001.0 8639.0
1001.0 8674.0
1001.0 8709.0
1001.0 8744.0
1001.0 8789.0
1012.0 8437.0
1012.0 8458.0
1012.0 8479.0
1012.0 8500.0
1012.0 8521.0
1012.0 8542.0
1012.0 8563.0
1012.0 8584.0
1012.0 8610.0
1012.0 8636.0
1012.0 8669.0
1012.0 8704.0
1012.0 8739.0
1012.0 8781.0
1014.0 8494.0
1014.0 8572.0
1016.0 8440.0
1016.0 8464.0
1016.0 8488.0
1016.0 8512.0
1016.0 8536.0
1016.0 8560.0
1016.0 8584.0
1016.0 8612.0
1016.0 8640.0
1016.0 8679.0
1016.0 8719.0
1016.0 8764.0
1018.0 8507.0
1022.0 8580.0
1031.0 8574.0
1038.0 8437.0
1038.0 8458.0
1038.0 8478.0
1038.0 8498.0
1038.0 8518.0
1038.0 8538.0
1038.0 8558.0
1038.0 8578.0
1038.0 8601.0
1038.0 8625.0
1038.0 8650.0
1038.0 8685.0
1038.0 8720.0
1038.0 8757.0
1068.0 8443.0
1068.0 8472.0
1068.0 8501.0
1068.0 8529.0
1068.0 8557.0
1068.0 8585.0
1068.0 8613.0
1068.0 8649.0
1075.0 8444.0
1075.0 8474.0
1075.0 8504.0
1075.0 8533.0
1075.0 8562.0
1075.0 8592.0
1075.0 8622.0
1087.0 8444.0
1087.0 8473.0
1087.0 8501.0
1087.0 8529.0
1087.0 8557.0
1087.0 8585.0
1087.0 8613.0
1087.0 8653.0
1088.0 8443.0
1088.0 8472.0
1088.0 8503.0
1088.0 8532.0
1088.0 8561.0
1088.0 8591.0
1088.0 8621.0
1105.0 8441.0
1105.0 8465.0
1105.0 8488.0
1105.0 8511.0
1105.0 8534.0
1105.0 8557.0
1105.0 8581.0
1105.0 8605.0
1105.0 8632.0
1105.0 8669.0
1105.0 8729.0
1114.0 8442.0
1114.0 8469.0
1114.0 8497.0
1114.0 8525.0
1114.0 8553.0
1114.0 8580.0
1114.0 8606.0
1114.0 8638.0
1114.0 8712.0
1118.0 8443.0
1118.0 8473.0
1118.0 8503.0
1118.0 8533.0
1118.0 8563.0
1118.0 8593.0
1118.0 8624.0
1134.0 8526.0
1135.0 8444.0
1135.0 8474.0
1135.0 8506.0
1135.0 8538.0
1135.0 8570.0
1135.0 8602.0
1135.0 8639.0
1148.0 8522.0
1156.0 8437.0
1156.0 8459.0
1156.0 8480.0
1156.0 8501.0
1156.0 8521.0
1156.0 8542.0
1156.0 8563.0
1156.0 8585.0
1156.0 8611.0
1156.0 8637.0
1156.0 8669.0
1156.0 8703.0
1156.0 8737.0
1156.0 8777.0
1165.0 8437.0
1165.0 8459.0
1165.0 8480.0
1165.0 8501.0
1165.0 8522.0
1165.0 8544.0
1165.0 8566.0
1165.0 8588.0
1165.0 8614.0
1165.0 8642.0
1165.0 8680.0
1165.0 8719.0
1165.0 8762.0
1172.0 8437.0
1172.0 8459.0
1172.0 8480.0
1172.0 8501.0
1172.0 8522.0
1172.0 8543.0
1172.0 8564.0
1172.0 8585.0
1172.0 8610.0
1172.0 8636.0
1172.0 8669.0
1172.0 8705.0
1172.0 8741.0
1172.0 8786.0
1204.0 8444.0
1204.0 8473.0
1204.0 8502.0
1204.0 8530.0
1204.0 8559.0
1204.0 8588.0
1204.0 8618.0
1204.0 8659.0
1222.0 8443.0
1222.0 8471.0
1222.0 8498.0
1222.0 8526.0
1222.0 8554.0
1222.0 8582.0
1222.0 8610.0
1222.0 8644.0
1222.0 8735.0
1226.0 8442.0
1226.0 8468.0
1226.0 8494.0
1226.0 8520.0
1226.0 8547.0
1226.0 8573.0
1226.0 8600.0
1226.0 8631.0
1226.0 8675.0
1226.0 8745.0
1251.0 8438.0
1251.0 8459.0
1251.0 8479.0
1251.0 8500.0
1251.0 8521.0
1251.0 8542.0
1251.0 8563.0
1251.0 8584.0
1251.0 8608.0
1251.0 8633.0
1251.0 8663.0
1251.0 8696.0
1251.0 8731.0
1251.0 8771.0
1253.0 8439.0
1253.0 8462.0
1253.0 8485.0
1253.0 8508.0
1253.0 8531.0
1253.0 8554.0
1253.0 8577.0
1253.0 8604.0
1253.0 8634.0
1253.0 8672.0
1253.0 8712.0
1253.0 8755.0
1254.0 8442.0
1254.0 8470.0
1254.0 8498.0
1254.0 8526.0
1254.0 8554.0
1254.0 8582.0
1254.0 8610.0
1254.0 8644.0
1254.0 8738.0
1262.0 8532.0
1337.0 8442.0
1337.0 8470.0
1337.0 8498.0
1337.0 8526.0
1337.0 8554.0
1337.0 8582.0
1337.0 8610.0
1337.0 8644.0
1337.0 8737.0
1340.0 8441.0
1340.0 8469.0
1340.0 8497.0
1340.0 8525.0
1340.0 8553.0
1340.0 8581.0
1340.0 8609.0
1340.0 8643.0
1340.0 8742.0
1345.0 8442.0
1345.0 8471.0
1345.0 8499.0
1345.0 8527.0
1345.0 8557.0
1345.0 8586.0
1345.0 8614.0
1345.0 8651.0
1390.0 8438.0
1390.0 8459.0
1390.0 8479.0
1390.0 8500.0
1390.0 8521.0
1390.0 8542.0
1390.0 8563.0
1390.0 8584.0
1390.0 8607.0
1390.0 8632.0
1390.0 8663.0
1390.0 8697.0
1390.0 8731.0
1390.0 8772.0
1404.0 8440.0
1404.0 8462.0
1404.0 8484.0
1404.0 8506.0
1404.0 8528.0
1404.0 8549.0
1404.0 8570.0
1404.0 8592.0
1404.0 8617.0
1404.0 8644.0
1404.0 8680.0
1404.0 8715.0
1404.0 8752.0
1417.0 8446.0
1417.0 8478.0
1417.0 8510.0
1417.0 8542.0
1417.0 8574.0
1417.0 8607.0
1417.0 8649.0
1418.0 8443.0
1418.0 8472.0
1418.0 8502.0
1418.0 8531.0
1418.0 8560.0
1418.0 8590.0
1418.0 8619.0
1418.0 8664.0
1423.0 8442.0
1423.0 8471.0
1423.0 8499.0
1423.0 8527.0
1423.0 8555.0
1423.0 8583.0
1423.0 8611.0
1423.0 8646.0
1442.0 8406.0
1442.0 8411.0
1442.0 8414.0
1442.0 8419.0
1442.0 8422.0
1442.0 8427.0
1442.0 8430.0
1442.0 8435.0
1442.0 8438.0
1442.0 8443.0
1442.0 8447.0
1442.0 8451.0
1442.0 8455.0
1442.0 8459.0
1442.0 8463.0
1442.0 8467.0
1442.0 8471.0
1442.0 8475.0
1442.0 8479.0
1442.0 8483.0
1442.0 8487.0
1442.0 8491.0
1442.0 8495.0
1442.0 8499.0
1442.0 8503.0
1442.0 8507.0
1442.0 8511.0
1442.0 8515.0
1442.0 8519.0
1442.0 8523.0
1442.0 8527.0
1442.0 8531.0
1442.0 8535.0
1442.0 8539.0
1442.0 8543.0
1442.0 8547.0
1442.0 8551.0
1442.0 8555.0
1442.0 8559.0
1442.0 8563.0
1442.0 8567.0
1442.0 8571.0
1442.0 8575.0
1442.0 8579.0
1442.0 8583.0
1442.0 8587.0
1442.0 8591.0
1442.0 8595.0
1442.0 8599.0
1442.0 8603.0
1442.0 8607.0
1442.0 8611.0
1442.0 8615.0
1442.0 8619.0
1442.0 8623.0
1442.0 8627.0
1442.0 8631.0
1442.0 8635.0
1442.0 8639.0
1442.0 8643.0
1442.0 8648.0
1442.0 8653.0
1442.0 8659.0
1442.0 8664.0
1442.0 8669.0
1442.0 8674.0
1442.0 8679.0
1442.0 8684.0
1442.0 8689.0
1442.0 8694.0
1442.0 8699.0
1442.0 8704.0
1442.0 8709.0
1442.0 8714.0
1442.0 8719.0
1442.0 8724.0
1442.0 8729.0
1442.0 8734.0
1442.0 8739.0
1442.0 8745.0
1442.0 8751.0
1442.0 8757.0
1442.0 8763.0
1442.0 8769.0
1442.0 8775.0
1442.0 8781.0
1442.0 8787.0
1442.0 8793.0
