680.0 10806.0
763.0 10806.0
1442.0 10806.0
26.0 10809.0
680.0 10810.0
763.0 10810.0
1442.0 10810.0
680.0 10813.0
763.0 10813.0
1442.0 10813.0
26.0 10815.0
680.0 10816.0
763.0 10816.0
1442.0 10816.0
680.0 10819.0
763.0 10819.0
1442.0 10819.0
26.0 10821.0
680.0 10822.0
763.0 10822.0
1442.0 10822.0
680.0 10825.0
763.0 10825.0
866.0 10825.0
1442.0 10825.0
347.0 10827.0
599.0 10827.0
26.0 10828.0
680.0 10828.0
763.0 10828.0
1442.0 10828.0
591.0 10831.0
680.0 10831.0
736.0 10831.0
763.0 10831.0
860.0 10831.0
950.0 10831.0
973.0 10831.0
1012.0 10831.0
1105.0 10831.0
1114.0 10831.0
1156.0 10831.0
1165.0 10831.0
1172.0 10831.0
1226.0 10831.0
1251.0 10831.0
1253.0 10831.0
1337.0 10831.0
1340.0 10831.0
1345.0 10831.0
1390.0 10831.0
1423.0 10831.0
1442.0 10831.0
735.0 10832.0
841.0 10832.0
842.0 10832.0
843.0 10832.0
852.0 10832.0
861.0 10832.0
941.0 10832.0
949.0 10832.0
991.0 10832.0
1001.0 10832.0
1038.0 10832.0
1068.0 10832.0
1075.0 10832.0
1087.0 10832.0
1088.0 10832.0
1118.0 10832.0
1135.0 10832.0
1222.0 10832.0
1254.0 10832.0
1418.0 10832.0
456.0 10833.0
857.0 10833.0
959.0 10833.0
1204.0 10833.0
1404.0 10833.0
1417.0 10833.0
714.0 10834.0
725.0 10834.0
738.0 10834.0
763.0 10834.0
880.0 10834.0
1016.0 10834.0
680.0 10835.0
1442.0 10835.0
26.0 10836.0
866.0 10836.0
763.0 10837.0
680.0 10838.0
1442.0 10838.0
763.0 10840.0
347.0 10841.0
599.0 10841.0
680.0 10841.0
1442.0 10841.0
366.0 10842.0
605.0 10842.0
632.0 10842.0
232.0 10843.0
241.0 10843.0
334.0 10843.0
623.0 10843.0
745.0 10843.0
763.0 10843.0
26.0 10844.0
259.0 10844.0
296.0 10844.0
303.0 10844.0
428.0 10844.0
450.0 10844.0
680.0 10844.0
709.0 10844.0
734.0 10844.0
1442.0 10844.0
217.0 10845.0
224.0 10845.0
227.0 10845.0
258.0 10845.0
558.0 10845.0
718.0 10845.0
744.0 10845.0
62.0 10846.0
112.0 10846.0
487.0 10846.0
763.0 10846.0
14.0 10847.0
159.0 10847.0
185.0 10847.0
328.0 10847.0
434.0 10847.0
680.0 10847.0
860.0 10847.0
866.0 10847.0
1442.0 10847.0
87.0 10848.0
129.0 10848.0
306.0 10848.0
591.0 10848.0
1105.0 10848.0
166.0 10849.0
382.0 10849.0
435.0 10849.0
607.0 10849.0
708.0 10849.0
735.0 10849.0
736.0 10849.0
763.0 10849.0
973.0 10849.0
1012.0 10849.0
1114.0 10849.0
1156.0 10849.0
1165.0 10849.0
1172.0 10849.0
1226.0 10849.0
1251.0 10849.0
1390.0 10849.0
157.0 10850.0
286.0 10850.0
580.0 10850.0
696.0 10850.0
843.0 10850.0
852.0 10850.0
857.0 10850.0
861.0 10850.0
949.0 10850.0
950.0 10850.0
991.0 10850.0
1038.0 10850.0
1222.0 10850.0
1337.0 10850.0
1340.0 10850.0
1345.0 10850.0
1423.0 10850.0
167.0 10851.0
477.0 10851.0
680.0 10851.0
725.0 10851.0
1001.0 10851.0
1068.0 10851.0
1075.0 10851.0
1087.0 10851.0
1118.0 10851.0
1253.0 10851.0
1254.0 10851.0
1418.0 10851.0
1442.0 10851.0
26.0 10852.0
456.0 10852.0
714.0 10852.0
763.0 10852.0
841.0 10852.0
842.0 10852.0
880.0 10852.0
941.0 10852.0
1088.0 10852.0
1135.0 10852.0
1204.0 10852.0
1404.0 10852.0
738.0 10853.0
959.0 10853.0
1016.0 10853.0
347.0 10854.0
680.0 10854.0
1417.0 10854.0
1442.0 10854.0
763.0 10855.0
599.0 10856.0
680.0 10857.0
1442.0 10857.0
763.0 10858.0
866.0 10858.0
165.0 10859.0
26.0 10860.0
680.0 10860.0
762.0 10860.0
1442.0 10860.0
763.0 10861.0
860.0 10862.0
680.0 10863.0
1442.0 10863.0
763.0 10864.0
1105.0 10864.0
591.0 10865.0
735.0 10866.0
736.0 10866.0
857.0 10866.0
1114.0 10866.0
1226.0 10866.0
1251.0 10866.0
680.0 10867.0
725.0 10867.0
763.0 10867.0
843.0 10867.0
949.0 10867.0
973.0 10867.0
991.0 10867.0
1012.0 10867.0
1038.0 10867.0
1156.0 10867.0
1165.0 10867.0
1172.0 10867.0
1222.0 10867.0
1390.0 10867.0
1442.0 10867.0
26.0 10868.0
347.0 10868.0
852.0 10868.0
861.0 10868.0
605.0 10869.0
866.0 10869.0
880.0 10869.0
1001.0 10869.0
1254.0 10869.0
1337.0 10869.0
1340.0 10869.0
1345.0 10869.0
456.0 10870.0
599.0 10870.0
632.0 10870.0
680.0 10870.0
714.0 10870.0
763.0 10870.0
950.0 10870.0
1068.0 10870.0
1075.0 10870.0
1087.0 10870.0
1253.0 10870.0
1404.0 10870.0
1423.0 10870.0
1442.0 10870.0
232.0 10871.0
241.0 10871.0
625.0 10871.0
1118.0 10871.0
1418.0 10871.0
366.0 10872.0
841.0 10872.0
1016.0 10872.0
1088.0 10872.0
1204.0 10872.0
224.0 10873.0
334.0 10873.0
680.0 10873.0
738.0 10873.0
763.0 10873.0
842.0 10873.0
941.0 10873.0
959.0 10873.0
1135.0 10873.0
1442.0 10873.0
709.0 10874.0
734.0 10874.0
217.0 10875.0
303.0 10875.0
466.0 10875.0
612.0 10875.0
623.0 10875.0
745.0 10875.0
1417.0 10875.0
26.0 10876.0
296.0 10876.0
680.0 10876.0
744.0 10876.0
763.0 10876.0
827.0 10876.0
851.0 10876.0
870.0 10876.0
1014.0 10876.0
1442.0 10876.0
475.0 10877.0
718.0 10877.0
985.0 10877.0
112.0 10878.0
258.0 10878.0
428.0 10878.0
450.0 10878.0
558.0 10878.0
860.0 10878.0
227.0 10879.0
680.0 10879.0
763.0 10879.0
1442.0 10879.0
185.0 10880.0
601.0 10880.0
671.0 10880.0
866.0 10880.0
62.0 10881.0
259.0 10881.0
487.0 10881.0
591.0 10881.0
1105.0 10881.0
1134.0 10881.0
14.0 10882.0
129.0 10882.0
306.0 10882.0
328.0 10882.0
347.0 10882.0
434.0 10882.0
607.0 10882.0
680.0 10882.0
763.0 10882.0
857.0 10882.0
159.0 10883.0
435.0 10883.0
696.0 10883.0
725.0 10883.0
735.0 10883.0
949.0 10883.0
1018.0 10883.0
1251.0 10883.0
1442.0 10883.0
26.0 10884.0
599.0 10884.0
726.0 10884.0
736.0 10884.0
1114.0 10884.0
1226.0 10884.0
166.0 10885.0
680.0 10885.0
708.0 10885.0
763.0 10885.0
843.0 10885.0
991.0 10885.0
1012.0 10885.0
1038.0 10885.0
1156.0 10885.0
1172.0 10885.0
1222.0 10885.0
286.0 10886.0
382.0 10886.0
449.0 10886.0
468.0 10886.0
754.0 10886.0
852.0 10886.0
861.0 10886.0
880.0 10886.0
973.0 10886.0
1165.0 10886.0
1390.0 10886.0
1442.0 10886.0
87.0 10887.0
989.0 10887.0
1340.0 10887.0
456.0 10888.0
477.0 10888.0
680.0 10888.0
704.0 10888.0
714.0 10888.0
763.0 10888.0
1001.0 10888.0
1254.0 10888.0
1337.0 10888.0
1404.0 10888.0
383.0 10889.0
679.0 10889.0
950.0 10889.0
1068.0 10889.0
1087.0 10889.0
1252.0 10889.0
1345.0 10889.0
1423.0 10889.0
1442.0 10889.0
157.0 10890.0
167.0 10890.0
1031.0 10890.0
1075.0 10890.0
1118.0 10890.0
1253.0 10890.0
1418.0 10890.0
377.0 10891.0
580.0 10891.0
680.0 10891.0
763.0 10891.0
850.0 10891.0
866.0 10891.0
959.0 10891.0
1016.0 10891.0
1204.0 10891.0
26.0 10892.0
738.0 10892.0
839.0 10892.0
841.0 10892.0
842.0 10892.0
994.0 10892.0
1088.0 10892.0
1135.0 10892.0
1355.0 10892.0
1442.0 10892.0
474.0 10893.0
801.0 10893.0
860.0 10893.0
894.0 10893.0
941.0 10893.0
960.0 10893.0
992.0 10893.0
680.0 10894.0
717.0 10894.0
743.0 10894.0
763.0 10894.0
1133.0 10894.0
347.0 10895.0
677.0 10895.0
886.0 10895.0
1417.0 10895.0
1442.0 10895.0
235.0 10896.0
241.0 10896.0
445.0 10896.0
589.0 10896.0
632.0 10896.0
881.0 10896.0
1022.0 10896.0
1084.0 10896.0
1105.0 10896.0
232.0 10897.0
478.0 10897.0
591.0 10897.0
599.0 10897.0
605.0 10897.0
680.0 10897.0
698.0 10897.0
751.0 10897.0
763.0 10897.0
857.0 10897.0
951.0 10897.0
981.0 10897.0
1148.0 10897.0
366.0 10898.0
476.0 10898.0
719.0 10898.0
889.0 10898.0
1225.0 10898.0
1243.0 10898.0
1433.0 10898.0
641.0 10899.0
725.0 10899.0
735.0 10899.0
949.0 10899.0
1251.0 10899.0
1262.0 10899.0
1442.0 10899.0
26.0 10900.0
224.0 10900.0
680.0 10900.0
705.0 10900.0
734.0 10900.0
736.0 10900.0
763.0 10900.0
1226.0 10900.0
334.0 10901.0
493.0 10901.0
547.0 10901.0
707.0 10901.0
709.0 10901.0
866.0 10901.0
991.0 10901.0
1012.0 10901.0
1114.0 10901.0
1222.0 10901.0
407.0 10902.0
588.0 10902.0
613.0 10902.0
852.0 10902.0
1010.0 10902.0
1038.0 10902.0
1442.0 10902.0
303.0 10903.0
368.0 10903.0
680.0 10903.0
695.0 10903.0
763.0 10903.0
843.0 10903.0
861.0 10903.0
880.0 10903.0
973.0 10903.0
1144.0 10903.0
1156.0 10903.0
1172.0 10903.0
1390.0 10903.0
745.0 10904.0
859.0 10904.0
975.0 10904.0
1205.0 10904.0
165.0 10905.0
217.0 10905.0
296.0 10905.0
456.0 10905.0
714.0 10905.0
744.0 10905.0
1001.0 10905.0
1117.0 10905.0
1165.0 10905.0
1196.0 10905.0
1254.0 10905.0
1337.0 10905.0
1340.0 10905.0
1442.0 10905.0
112.0 10906.0
450.0 10906.0
558.0 10906.0
623.0 10906.0
680.0 10906.0
763.0 10906.0
833.0 10906.0
837.0 10906.0
883.0 10906.0
950.0 10906.0
1021.0 10906.0
718.0 10907.0
860.0 10907.0
875.0 10907.0
1003.0 10907.0
1068.0 10907.0
1087.0 10907.0
1107.0 10907.0
1241.0 10907.0
1345.0 10907.0
1404.0 10907.0
1423.0 10907.0
26.0 10908.0
347.0 10908.0
375.0 10908.0
426.0 10908.0
428.0 10908.0
513.0 10908.0
598.0 10908.0
638.0 10908.0
864.0 10908.0
1075.0 10908.0
1115.0 10908.0
1118.0 10908.0
1271.0 10908.0
1418.0 10908.0
1442.0 10908.0
195.0 10909.0
482.0 10909.0
607.0 10909.0
631.0 10909.0
680.0 10909.0
738.0 10909.0
763.0 10909.0
959.0 10909.0
971.0 10909.0
1016.0 10909.0
1204.0 10909.0
1253.0 10909.0
1300.0 10909.0
1305.0 10909.0
435.0 10910.0
568.0 10910.0
599.0 10910.0
762.0 10910.0
807.0 10910.0
227.0 10911.0
258.0 10911.0
504.0 10911.0
811.0 10911.0
842.0 10911.0
942.0 10911.0
1088.0 10911.0
1135.0 10911.0
1244.0 10911.0
1442.0 10911.0
1446.0 10911.0
14.0 10912.0
185.0 10912.0
344.0 10912.0
434.0 10912.0
436.0 10912.0
487.0 10912.0
496.0 10912.0
591.0 10912.0
615.0 10912.0
680.0 10912.0
716.0 10912.0
763.0 10912.0
841.0 10912.0
857.0 10912.0
863.0 10912.0
866.0 10912.0
941.0 10912.0
1105.0 10912.0
1381.0 10912.0
306.0 10913.0
600.0 10913.0
634.0 10913.0
62.0 10914.0
259.0 10914.0
328.0 10914.0
484.0 10914.0
696.0 10914.0
708.0 10914.0
735.0 10914.0
847.0 10914.0
949.0 10914.0
953.0 10914.0
1417.0 10914.0
121.0 10915.0
286.0 10915.0
355.0 10915.0
680.0 10915.0
725.0 10915.0
736.0 10915.0
763.0 10915.0
832.0 10915.0
872.0 10915.0
1067.0 10915.0
1127.0 10915.0
1251.0 10915.0
1257.0 10915.0
1442.0 10915.0
26.0 10916.0
502.0 10916.0
851.0 10916.0
964.0 10916.0
1226.0 10916.0
166.0 10917.0
852.0 10917.0
991.0 10917.0
1002.0 10917.0
1114.0 10917.0
1174.0 10917.0
129.0 10918.0
139.0 10918.0
158.0 10918.0
517.0 10918.0
680.0 10918.0
763.0 10918.0
903.0 10918.0
1012.0 10918.0
1222.0 10918.0
1442.0 10918.0
77.0 10919.0
159.0 10919.0
477.0 10919.0
648.0 10919.0
710.0 10919.0
843.0 10919.0
861.0 10919.0
880.0 10919.0
1038.0 10919.0
1156.0 10919.0
347.0 10920.0
590.0 10920.0
687.0 10920.0
831.0 10920.0
965.0 10920.0
973.0 10920.0
1134.0 10920.0
1172.0 10920.0
1390.0 10920.0
87.0 10921.0
297.0 10921.0
338.0 10921.0
382.0 10921.0
581.0 10921.0
605.0 10921.0
671.0 10921.0
680.0 10921.0
714.0 10921.0
763.0 10921.0
1442.0 10921.0
241.0 10922.0
567.0 10922.0
625.0 10922.0
632.0 10922.0
860.0 10922.0
866.0 10922.0
1001.0 10922.0
1254.0 10922.0
1340.0 10922.0
157.0 10923.0
366.0 10923.0
456.0 10923.0
466.0 10923.0
468.0 10923.0
599.0 10923.0
950.0 10923.0
1165.0 10923.0
26.0 10924.0
232.0 10924.0
680.0 10924.0
763.0 10924.0
1068.0 10924.0
1087.0 10924.0
1337.0 10924.0
1404.0 10924.0
1442.0 10924.0
449.0 10925.0
601.0 10925.0
734.0 10925.0
985.0 10925.0
1014.0 10925.0
1118.0 10925.0
167.0 10926.0
612.0 10926.0
870.0 10926.0
1075.0 10926.0
1345.0 10926.0
1423.0 10926.0
224.0 10927.0
334.0 10927.0
467.0 10927.0
680.0 10927.0
709.0 10927.0
729.0 10927.0
737.0 10927.0
738.0 10927.0
763.0 10927.0
819.0 10927.0
848.0 10927.0
857.0 10927.0
959.0 10927.0
1204.0 10927.0
1418.0 10927.0
1442.0 10927.0
591.0 10928.0
1016.0 10928.0
1105.0 10928.0
540.0 10929.0
827.0 10929.0
842.0 10929.0
893.0 10929.0
1018.0 10929.0
1253.0 10929.0
303.0 10930.0
580.0 10930.0
680.0 10930.0
725.0 10930.0
736.0 10930.0
763.0 10930.0
869.0 10930.0
949.0 10930.0
1088.0 10930.0
296.0 10931.0
735.0 10931.0
841.0 10931.0
941.0 10931.0
1135.0 10931.0
1251.0 10931.0
1442.0 10931.0
26.0 10932.0
623.0 10932.0
745.0 10932.0
866.0 10932.0
438.0 10933.0
558.0 10933.0
640.0 10933.0
680.0 10933.0
726.0 10933.0
763.0 10933.0
852.0 10933.0
1226.0 10933.0
1417.0 10933.0
112.0 10934.0
347.0 10934.0
475.0 10934.0
628.0 10934.0
662.0 10934.0
679.0 10934.0
991.0 10934.0
1110.0 10934.0
1114.0 10934.0
1136.0 10934.0
1240.0 10934.0
1442.0 10934.0
217.0 10935.0
435.0 10935.0
718.0 10935.0
880.0 10935.0
1012.0 10935.0
1106.0 10935.0
1222.0 10935.0
450.0 10936.0
680.0 10936.0
704.0 10936.0
763.0 10936.0
843.0 10936.0
861.0 10936.0
1038.0 10936.0
1156.0 10936.0
599.0 10937.0
607.0 10937.0
860.0 10937.0
973.0 10937.0
989.0 10937.0
1442.0 10937.0
428.0 10938.0
714.0 10938.0
754.0 10938.0
1172.0 10938.0
1390.0 10938.0
680.0 10939.0
744.0 10939.0
763.0 10939.0
770.0 10939.0
808.0 10939.0
1001.0 10939.0
1254.0 10939.0
1340.0 10939.0
26.0 10940.0
456.0 10940.0
717.0 10940.0
1442.0 10940.0
185.0 10941.0
445.0 10941.0
950.0 10941.0
960.0 10941.0
434.0 10942.0
677.0 10942.0
680.0 10942.0
763.0 10942.0
805.0 10942.0
857.0 10942.0
866.0 10942.0
892.0 10942.0
1068.0 10942.0
1087.0 10942.0
1165.0 10942.0
1280.0 10942.0
1337.0 10942.0
1404.0 10942.0
14.0 10943.0
306.0 10943.0
686.0 10943.0
1118.0 10943.0
1442.0 10943.0
227.0 10944.0
258.0 10944.0
591.0 10944.0
801.0 10944.0
894.0 10944.0
959.0 10944.0
1031.0 10944.0
1075.0 10944.0
1105.0 10944.0
1345.0 10944.0
1423.0 10944.0
62.0 10945.0
487.0 10945.0
680.0 10945.0
725.0 10945.0
738.0 10945.0
763.0 10945.0
1204.0 10945.0
1355.0 10945.0
1418.0 10945.0
165.0 10946.0
241.0 10946.0
259.0 10946.0
286.0 10946.0
347.0 10946.0
632.0 10946.0
696.0 10946.0
736.0 10946.0
839.0 10946.0
949.0 10946.0
1016.0 10946.0
605.0 10947.0
698.0 10947.0
735.0 10947.0
1084.0 10947.0
1251.0 10947.0
1442.0 10947.0
26.0 10948.0
166.0 10948.0
383.0 10948.0
606.0 10948.0
680.0 10948.0
708.0 10948.0
763.0 10948.0
842.0 10948.0
911.0 10948.0
1088.0 10948.0
1253.0 10948.0
1419.0 10948.0
850.0 10949.0
994.0 10949.0
1226.0 10949.0
159.0 10950.0
599.0 10950.0
705.0 10950.0
841.0 10950.0
852.0 10950.0
941.0 10950.0
981.0 10950.0
1114.0 10950.0
1135.0 10950.0
1442.0 10950.0
680.0 10951.0
763.0 10951.0
796.0 10951.0
991.0 10951.0
1222.0 10951.0
232.0 10952.0
328.0 10952.0
366.0 10952.0
477.0 10952.0
588.0 10952.0
707.0 10952.0
880.0 10952.0
589.0 10953.0
734.0 10953.0
860.0 10953.0
866.0 10953.0
1012.0 10953.0
1038.0 10953.0
1133.0 10953.0
1262.0 10953.0
1417.0 10953.0
1442.0 10953.0
87.0 10954.0
129.0 10954.0
224.0 10954.0
680.0 10954.0
709.0 10954.0
751.0 10954.0
763.0 10954.0
843.0 10954.0
861.0 10954.0
973.0 10954.0
1156.0 10954.0
1252.0 10954.0
334.0 10955.0
714.0 10955.0
762.0 10955.0
1390.0 10955.0
26.0 10956.0
157.0 10956.0
881.0 10956.0
992.0 10956.0
1172.0 10956.0
1254.0 10956.0
1442.0 10956.0
296.0 10957.0
303.0 10957.0
476.0 10957.0
680.0 10957.0
837.0 10957.0
1001.0 10957.0
1340.0 10957.0
382.0 10958.0
456.0 10958.0
763.0 10958.0
857.0 10958.0
1148.0 10958.0
347.0 10959.0
558.0 10959.0
591.0 10959.0
950.0 10959.0
1337.0 10959.0
1442.0 10959.0
680.0 10960.0
859.0 10960.0
889.0 10960.0
1068.0 10960.0
1087.0 10960.0
1105.0 10960.0
1404.0 10960.0
167.0 10961.0
478.0 10961.0
725.0 10961.0
1118.0 10961.0
1165.0 10961.0
1436.0 10961.0
435.0 10962.0
623.0 10962.0
695.0 10962.0
738.0 10962.0
745.0 10962.0
763.0 10962.0
959.0 10962.0
1075.0 10962.0
1423.0 10962.0
599.0 10963.0
607.0 10963.0
680.0 10963.0
736.0 10963.0
949.0 10963.0
1204.0 10963.0
1251.0 10963.0
1345.0 10963.0
1418.0 10963.0
1442.0 10963.0
26.0 10964.0
580.0 10964.0
718.0 10964.0
735.0 10964.0
866.0 10964.0
112.0 10965.0
1016.0 10965.0
1226.0 10965.0
680.0 10966.0
763.0 10966.0
864.0 10966.0
1442.0 10966.0
842.0 10967.0
852.0 10967.0
1088.0 10967.0
1114.0 10967.0
671.0 10968.0
851.0 10968.0
860.0 10968.0
991.0 10968.0
1253.0 10968.0
450.0 10969.0
547.0 10969.0
680.0 10969.0
744.0 10969.0
763.0 10969.0
941.0 10969.0
1117.0 10969.0
1135.0 10969.0
1222.0 10969.0
1442.0 10969.0
415.0 10970.0
428.0 10970.0
880.0 10970.0
973.0 10970.0
975.0 10970.0
1243.0 10970.0
185.0 10971.0
217.0 10971.0
26.0 10972.0
680.0 10972.0
714.0 10972.0
841.0 10972.0
843.0 10972.0
1038.0 10972.0
1442.0 10972.0
306.0 10973.0
347.0 10973.0
763.0 10973.0
861.0 10973.0
1012.0 10973.0
1254.0 10973.0
1417.0 10973.0
857.0 10974.0
1156.0 10974.0
434.0 10975.0
680.0 10975.0
866.0 10975.0
951.0 10975.0
1105.0 10975.0
1340.0 10975.0
1390.0 10975.0
1442.0 10975.0
14.0 10976.0
950.0 10976.0
1172.0 10976.0
1205.0 10976.0
62.0 10977.0
591.0 10977.0
763.0 10977.0
942.0 10977.0
1337.0 10977.0
456.0 10978.0
599.0 10978.0
680.0 10978.0
1068.0 10978.0
1087.0 10978.0
241.0 10979.0
286.0 10979.0
632.0 10979.0
949.0 10979.0
985.0 10979.0
1001.0 10979.0
1118.0 10979.0
1442.0 10979.0
26.0 10980.0
166.0 10980.0
725.0 10980.0
738.0 10980.0
763.0 10980.0
680.0 10981.0
696.0 10981.0
734.0 10981.0
959.0 10981.0
1075.0 10981.0
1204.0 10981.0
1226.0 10981.0
1404.0 10981.0
1423.0 10981.0
605.0 10982.0
735.0 10982.0
1345.0 10982.0
1418.0 10982.0
1442.0 10982.0
736.0 10983.0
811.0 10983.0
827.0 10983.0
1165.0 10983.0
1251.0 10983.0
680.0 10984.0
704.0 10984.0
709.0 10984.0
763.0 10984.0
227.0 10985.0
303.0 10985.0
679.0 10985.0
833.0 10985.0
852.0 10985.0
860.0 10985.0
991.0 10985.0
1114.0 10985.0
1442.0 10985.0
159.0 10986.0
165.0 10986.0
232.0 10986.0
296.0 10986.0
407.0 10986.0
1088.0 10986.0
1222.0 10986.0
258.0 10987.0
477.0 10987.0
680.0 10987.0
842.0 10987.0
866.0 10987.0
1016.0 10987.0
26.0 10988.0
347.0 10988.0
558.0 10988.0
763.0 10988.0
973.0 10988.0
1442.0 10988.0
714.0 10989.0
941.0 10989.0
1135.0 10989.0
87.0 10990.0
680.0 10990.0
857.0 10990.0
880.0 10990.0
1105.0 10991.0
1253.0 10991.0
1254.0 10991.0
1442.0 10991.0
157.0 10992.0
334.0 10992.0
366.0 10992.0
426.0 10992.0
763.0 10992.0
1038.0 10992.0
1340.0 10992.0
1417.0 10992.0
224.0 10993.0
435.0 10993.0
599.0 10993.0
680.0 10993.0
843.0 10993.0
1012.0 10993.0
1244.0 10993.0
607.0 10994.0
719.0 10994.0
807.0 10994.0
950.0 10994.0
487.0 10995.0
591.0 10995.0
718.0 10995.0
861.0 10995.0
949.0 10995.0
1156.0 10995.0
1337.0 10995.0
1442.0 10995.0
26.0 10996.0
167.0 10996.0
677.0 10996.0
680.0 10996.0
763.0 10996.0
841.0 10996.0
1068.0 10996.0
1087.0 10996.0
1390.0 10996.0
1172.0 10997.0
445.0 10998.0
456.0 10998.0
801.0 10998.0
866.0 10998.0
1118.0 10998.0
1442.0 10998.0
450.0 10999.0
680.0 10999.0
725.0 10999.0
738.0 10999.0
1075.0 10999.0
1204.0 10999.0
1226.0 10999.0
1423.0 10999.0
717.0 11000.0
763.0 11000.0
959.0 11000.0
1345.0 11000.0
185.0 11001.0
580.0 11001.0
735.0 11001.0
1418.0 11001.0
1442.0 11001.0
347.0 11002.0
428.0 11002.0
680.0 11002.0
736.0 11002.0
744.0 11002.0
991.0 11002.0
1001.0 11002.0
1114.0 11002.0
306.0 11003.0
852.0 11003.0
860.0 11003.0
1222.0 11003.0
1251.0 11003.0
1404.0 11003.0
26.0 11004.0
434.0 11004.0
763.0 11004.0
1442.0 11004.0
680.0 11005.0
971.0 11005.0
714.0 11006.0
842.0 11006.0
857.0 11006.0
973.0 11006.0
1088.0 11006.0
1165.0 11006.0
14.0 11007.0
839.0 11007.0
960.0 11007.0
1105.0 11007.0
1442.0 11007.0
680.0 11008.0
763.0 11008.0
941.0 11008.0
981.0 11008.0
1135.0 11008.0
599.0 11009.0
866.0 11009.0
1254.0 11009.0
62.0 11010.0
705.0 11010.0
734.0 11010.0
1016.0 11010.0
1225.0 11010.0
1340.0 11010.0
568.0 11011.0
680.0 11011.0
709.0 11011.0
880.0 11011.0
949.0 11011.0
1196.0 11011.0
1417.0 11011.0
1442.0 11011.0
26.0 11012.0
259.0 11012.0
286.0 11012.0
708.0 11012.0
763.0 11012.0
950.0 11012.0
166.0 11013.0
591.0 11013.0
687.0 11013.0
696.0 11013.0
847.0 11013.0
1038.0 11013.0
1337.0 11013.0
112.0 11014.0
296.0 11014.0
303.0 11014.0
680.0 11014.0
843.0 11014.0
1068.0 11014.0
1084.0 11014.0
1087.0 11014.0
1442.0 11014.0
1012.0 11015.0
1226.0 11015.0
1253.0 11015.0
698.0 11016.0
763.0 11016.0
861.0 11016.0
1118.0 11016.0
347.0 11017.0
680.0 11017.0
738.0 11017.0
1075.0 11017.0
1156.0 11017.0
1204.0 11017.0
1423.0 11017.0
1442.0 11017.0
456.0 11018.0
558.0 11018.0
623.0 11018.0
725.0 11018.0
1390.0 11018.0
159.0 11019.0
476.0 11019.0
671.0 11019.0
959.0 11019.0
991.0 11019.0
1172.0 11019.0
1345.0 11019.0
26.0 11020.0
680.0 11020.0
763.0 11020.0
841.0 11020.0
852.0 11020.0
1114.0 11020.0
1222.0 11020.0
1418.0 11020.0
1442.0 11020.0
605.0 11021.0
735.0 11021.0
866.0 11021.0
195.0 11022.0
632.0 11022.0
736.0 11022.0
851.0 11022.0
857.0 11022.0
860.0 11022.0
297.0 11023.0
680.0 11023.0
714.0 11023.0
973.0 11023.0
1001.0 11023.0
1105.0 11023.0
1442.0 11023.0
129.0 11024.0
241.0 11024.0
477.0 11024.0
763.0 11024.0
837.0 11024.0
1251.0 11024.0
165.0 11025.0
435.0 11025.0
599.0 11025.0
842.0 11025.0
87.0 11026.0
157.0 11026.0
217.0 11026.0
607.0 11026.0
680.0 11026.0
718.0 11026.0
745.0 11026.0
1088.0 11026.0
1115.0 11026.0
1404.0 11026.0
695.0 11027.0
941.0 11027.0
949.0 11027.0
1135.0 11027.0
1254.0 11027.0
1442.0 11027.0
26.0 11028.0
763.0 11028.0
1165.0 11028.0
1340.0 11028.0
77.0 11029.0
680.0 11029.0
1417.0 11029.0
450.0 11030.0
950.0 11030.0
1337.0 11030.0
1442.0 11030.0
328.0 11031.0
880.0 11031.0
347.0 11032.0
591.0 11032.0
680.0 11032.0
704.0 11032.0
763.0 11032.0
1068.0 11032.0
1087.0 11032.0
1226.0 11032.0
167.0 11033.0
185.0 11033.0
306.0 11033.0
866.0 11033.0
1442.0 11033.0
428.0 11034.0
1016.0 11034.0
1038.0 11034.0
1118.0 11034.0
680.0 11035.0
744.0 11035.0
843.0 11035.0
1204.0 11035.0
26.0 11036.0
366.0 11036.0
434.0 11036.0
738.0 11036.0
763.0 11036.0
991.0 11036.0
1075.0 11036.0
1423.0 11036.0
1442.0 11036.0
679.0 11037.0
852.0 11037.0
959.0 11037.0
1012.0 11037.0
1114.0 11037.0
232.0 11038.0
456.0 11038.0
580.0 11038.0
680.0 11038.0
725.0 11038.0
827.0 11038.0
857.0 11038.0
861.0 11038.0
1222.0 11038.0
1345.0 11038.0
14.0 11039.0
707.0 11039.0
1156.0 11039.0
1253.0 11039.0
1418.0 11039.0
1442.0 11039.0
224.0 11040.0
334.0 11040.0
714.0 11040.0
734.0 11040.0
763.0 11040.0
860.0 11040.0
973.0 11040.0
1105.0 11040.0
1390.0 11040.0
599.0 11041.0
680.0 11041.0
709.0 11041.0
735.0 11041.0
985.0 11041.0
1172.0 11041.0
296.0 11042.0
303.0 11042.0
736.0 11042.0
62.0 11043.0
286.0 11043.0
949.0 11043.0
1442.0 11043.0
26.0 11044.0
680.0 11044.0
763.0 11044.0
841.0 11044.0
842.0 11044.0
866.0 11044.0
558.0 11045.0
588.0 11045.0
1001.0 11045.0
1088.0 11045.0
1251.0 11045.0
1254.0 11045.0
166.0 11046.0
696.0 11046.0
819.0 11046.0
941.0 11046.0
1135.0 11046.0
1340.0 11046.0
1442.0 11046.0
436.0 11047.0
680.0 11047.0
347.0 11048.0
763.0 11048.0
950.0 11048.0
1226.0 11048.0
1337.0 11048.0
1404.0 11048.0
227.0 11049.0
859.0 11049.0
1106.0 11049.0
1417.0 11049.0
1442.0 11049.0
258.0 11050.0
540.0 11050.0
680.0 11050.0
1067.0 11050.0
1068.0 11050.0
1087.0 11050.0
547.0 11051.0
591.0 11051.0
805.0 11051.0
1110.0 11051.0
1165.0 11051.0
1355.0 11051.0
26.0 11052.0
159.0 11052.0
717.0 11052.0
763.0 11052.0
880.0 11052.0
1442.0 11052.0
435.0 11053.0
680.0 11053.0
857.0 11053.0
991.0 11053.0
1118.0 11053.0
1204.0 11053.0
738.0 11054.0
1114.0 11054.0
1222.0 11054.0
1423.0 11054.0
445.0 11055.0
852.0 11055.0
1038.0 11055.0
1075.0 11055.0
680.0 11056.0
763.0 11056.0
843.0 11056.0
866.0 11056.0
959.0 11056.0
1105.0 11056.0
1345.0 11056.0
1442.0 11056.0
382.0 11057.0
487.0 11057.0
599.0 11057.0
607.0 11057.0
714.0 11057.0
973.0 11057.0
1418.0 11057.0
718.0 11058.0
725.0 11058.0
860.0 11058.0
942.0 11058.0
1016.0 11058.0
157.0 11059.0
456.0 11059.0
680.0 11059.0
949.0 11059.0
1012.0 11059.0
1442.0 11059.0
26.0 11060.0
450.0 11060.0
477.0 11060.0
763.0 11060.0
861.0 11060.0
735.0 11061.0
87.0 11062.0
677.0 11062.0
680.0 11062.0
736.0 11062.0
1390.0 11062.0
1442.0 11062.0
347.0 11063.0
842.0 11063.0
1156.0 11063.0
1205.0 11063.0
1254.0 11063.0
185.0 11064.0
306.0 11064.0
705.0 11064.0
763.0 11064.0
801.0 11064.0
1088.0 11064.0
1172.0 11064.0
165.0 11065.0
680.0 11065.0
1135.0 11065.0
1253.0 11065.0
1340.0 11065.0
1442.0 11065.0
605.0 11066.0
941.0 11066.0
1226.0 11066.0
1251.0 11066.0
1337.0 11066.0
241.0 11067.0
428.0 11067.0
434.0 11067.0
632.0 11067.0
950.0 11067.0
951.0 11067.0
1001.0 11067.0
26.0 11068.0
167.0 11068.0
680.0 11068.0
734.0 11068.0
744.0 11068.0
763.0 11068.0
841.0 11068.0
866.0 11068.0
1068.0 11068.0
1087.0 11068.0
1442.0 11068.0
296.0 11069.0
303.0 11069.0
591.0 11069.0
709.0 11069.0
807.0 11069.0
975.0 11069.0
1417.0 11069.0
112.0 11070.0
857.0 11070.0
960.0 11070.0
991.0 11070.0
1117.0 11070.0
14.0 11071.0
680.0 11071.0
1114.0 11071.0
1204.0 11071.0
1222.0 11071.0
1404.0 11071.0
1442.0 11071.0
671.0 11072.0
738.0 11072.0
763.0 11072.0
852.0 11072.0
1105.0 11072.0
1118.0 11072.0
1423.0 11072.0
426.0 11073.0
599.0 11073.0
1165.0 11073.0
62.0 11074.0
580.0 11074.0
680.0 11074.0
714.0 11074.0
880.0 11074.0
973.0 11074.0
1075.0 11074.0
1243.0 11074.0
1345.0 11074.0
1442.0 11074.0
286.0 11075.0
558.0 11075.0
623.0 11075.0
763.0 11075.0
811.0 11075.0
949.0 11075.0
959.0 11075.0
1418.0 11075.0
26.0 11076.0
850.0 11076.0
860.0 11076.0
1038.0 11076.0
680.0 11077.0
843.0 11077.0
1442.0 11077.0
725.0 11078.0
839.0 11078.0
851.0 11078.0
1107.0 11078.0
166.0 11079.0
347.0 11079.0
763.0 11079.0
1012.0 11079.0
366.0 11080.0
407.0 11080.0
456.0 11080.0
476.0 11080.0
680.0 11080.0
735.0 11080.0
847.0 11080.0
866.0 11080.0
953.0 11080.0
981.0 11080.0
1254.0 11080.0
1442.0 11080.0
217.0 11081.0
696.0 11081.0
704.0 11081.0
736.0 11081.0
837.0 11081.0
1016.0 11081.0
232.0 11082.0
842.0 11082.0
861.0 11082.0
998.0 11082.0
1088.0 11082.0
1226.0 11082.0
1340.0 11082.0
259.0 11083.0
680.0 11083.0
763.0 11083.0
1084.0 11083.0
1337.0 11083.0
1390.0 11083.0
1442.0 11083.0
26.0 11084.0
941.0 11084.0
950.0 11084.0
1135.0 11084.0
1156.0 11084.0
1172.0 11084.0
224.0 11085.0
745.0 11085.0
857.0 11085.0
964.0 11085.0
1196.0 11085.0
1251.0 11085.0
334.0 11086.0
607.0 11086.0
680.0 11086.0
763.0 11086.0
833.0 11086.0
991.0 11086.0
1068.0 11086.0
1087.0 11086.0
1442.0 11086.0
159.0 11087.0
435.0 11087.0
591.0 11087.0
718.0 11087.0
719.0 11087.0
1001.0 11087.0
1105.0 11087.0
1222.0 11087.0
1417.0 11087.0
1446.0 11087.0
599.0 11088.0
698.0 11088.0
827.0 11088.0
965.0 11088.0
1114.0 11088.0
1118.0 11088.0
1204.0 11088.0
1253.0 11088.0
129.0 11089.0
680.0 11089.0
852.0 11089.0
1225.0 11089.0
1423.0 11089.0
1442.0 11089.0
450.0 11090.0
679.0 11090.0
708.0 11090.0
714.0 11090.0
738.0 11090.0
763.0 11090.0
973.0 11090.0
1115.0 11090.0
1213.0 11090.0
866.0 11091.0
949.0 11091.0
26.0 11092.0
680.0 11092.0
796.0 11092.0
841.0 11092.0
860.0 11092.0
1075.0 11092.0
1345.0 11092.0
1404.0 11092.0
1439.0 11092.0
1442.0 11092.0
157.0 11093.0
695.0 11093.0
729.0 11093.0
734.0 11093.0
880.0 11093.0
959.0 11093.0
1002.0 11093.0
1165.0 11093.0
1418.0 11093.0
347.0 11094.0
763.0 11094.0
832.0 11094.0
997.0 11094.0
1241.0 11094.0
1244.0 11094.0
1257.0 11094.0
1419.0 11094.0
1433.0 11094.0
185.0 11095.0
680.0 11095.0
808.0 11095.0
1038.0 11095.0
1442.0 11095.0
306.0 11096.0
328.0 11096.0
477.0 11096.0
568.0 11096.0
725.0 11096.0
843.0 11096.0
863.0 11096.0
985.0 11096.0
1445.0 11096.0
296.0 11097.0
303.0 11097.0
1226.0 11097.0
1254.0 11097.0
87.0 11098.0
428.0 11098.0
434.0 11098.0
680.0 11098.0
709.0 11098.0
735.0 11098.0
763.0 11098.0
1012.0 11098.0
1340.0 11098.0
1442.0 11098.0
605.0 11099.0
736.0 11099.0
744.0 11099.0
1238.0 11099.0
1434.0 11099.0
26.0 11100.0
456.0 11100.0
857.0 11100.0
950.0 11100.0
1337.0 11100.0
558.0 11101.0
680.0 11101.0
687.0 11101.0
842.0 11101.0
1088.0 11101.0
1135.0 11101.0
1223.0 11101.0
1240.0 11101.0
1390.0 11101.0
1442.0 11101.0
717.0 11102.0
763.0 11102.0
861.0 11102.0
941.0 11102.0
14.0 11103.0
599.0 11103.0
866.0 11103.0
991.0 11103.0
1016.0 11103.0
1068.0 11103.0
1087.0 11103.0
1105.0 11103.0
1156.0 11103.0
1222.0 11103.0
1236.0 11103.0
680.0 11104.0
871.0 11104.0
1114.0 11104.0
1251.0 11104.0
1263.0 11104.0
1442.0 11104.0
167.0 11105.0
591.0 11105.0
714.0 11105.0
763.0 11105.0
1118.0 11105.0
1172.0 11105.0
62.0 11106.0
165.0 11106.0
852.0 11106.0
949.0 11106.0
973.0 11106.0
1204.0 11106.0
1374.0 11106.0
1417.0 11106.0
258.0 11107.0
286.0 11107.0
632.0 11107.0
680.0 11107.0
738.0 11107.0
872.0 11107.0
1001.0 11107.0
1423.0 11107.0
1442.0 11107.0
26.0 11108.0
487.0 11108.0
696.0 11108.0
1422.0 11108.0
1436.0 11108.0
347.0 11109.0
763.0 11109.0
860.0 11109.0
959.0 11109.0
1075.0 11109.0
445.0 11110.0
580.0 11110.0
680.0 11110.0
1174.0 11110.0
1345.0 11110.0
1355.0 11110.0
1442.0 11110.0
227.0 11111.0
241.0 11111.0
880.0 11111.0
1253.0 11111.0
1418.0 11111.0
166.0 11112.0
1110.0 11112.0
1404.0 11112.0
112.0 11113.0
680.0 11113.0
707.0 11113.0
725.0 11113.0
763.0 11113.0
1226.0 11113.0
1442.0 11113.0
297.0 11114.0
435.0 11114.0
841.0 11114.0
864.0 11114.0
866.0 11114.0
1254.0 11114.0
857.0 11115.0
971.0 11115.0
1038.0 11115.0
1165.0 11115.0
1340.0 11115.0
26.0 11116.0
607.0 11116.0
680.0 11116.0
763.0 11116.0
843.0 11116.0
1127.0 11116.0
1442.0 11116.0
718.0 11117.0
735.0 11117.0
736.0 11117.0
1012.0 11117.0
1337.0 11117.0
599.0 11118.0
950.0 11118.0
1105.0 11118.0
623.0 11119.0
677.0 11119.0
680.0 11119.0
819.0 11119.0
842.0 11119.0
991.0 11119.0
1088.0 11119.0
1222.0 11119.0
1415.0 11119.0
366.0 11120.0
456.0 11120.0
763.0 11120.0
1068.0 11120.0
1114.0 11120.0
1135.0 11120.0
1390.0 11120.0
1442.0 11120.0
159.0 11121.0
382.0 11121.0
705.0 11121.0
714.0 11121.0
801.0 11121.0
941.0 11121.0
1087.0 11121.0
232.0 11122.0
450.0 11122.0
680.0 11122.0
734.0 11122.0
949.0 11122.0
973.0 11122.0
1251.0 11122.0
591.0 11123.0
671.0 11123.0
763.0 11123.0
852.0 11123.0
1016.0 11123.0
1118.0 11123.0
1156.0 11123.0
1204.0 11123.0
26.0 11124.0
347.0 11124.0
588.0 11124.0
738.0 11124.0
861.0 11124.0
1442.0 11124.0
303.0 11125.0
680.0 11125.0
709.0 11125.0
866.0 11125.0
951.0 11125.0
1028.0 11125.0
1172.0 11125.0
1417.0 11125.0
1423.0 11125.0
224.0 11126.0
296.0 11126.0
763.0 11126.0
860.0 11126.0
1067.0 11126.0
157.0 11127.0
185.0 11127.0
942.0 11127.0
217.0 11128.0
680.0 11128.0
1001.0 11128.0
1075.0 11128.0
1442.0 11128.0
306.0 11129.0
334.0 11129.0
763.0 11129.0
959.0 11129.0
428.0 11130.0
434.0 11130.0
558.0 11130.0
745.0 11130.0
851.0 11130.0
1226.0 11130.0
1345.0 11130.0
259.0 11131.0
680.0 11131.0
704.0 11131.0
880.0 11131.0
1418.0 11131.0
1442.0 11131.0
26.0 11132.0
477.0 11132.0
599.0 11132.0
725.0 11132.0
763.0 11132.0
857.0 11132.0
129.0 11133.0
195.0 11133.0
605.0 11133.0
1254.0 11133.0
87.0 11134.0
436.0 11134.0
476.0 11134.0
680.0 11134.0
736.0 11134.0
1253.0 11134.0
1340.0 11134.0
1404.0 11134.0
14.0 11135.0
744.0 11135.0
763.0 11135.0
807.0 11135.0
843.0 11135.0
1038.0 11135.0
1105.0 11135.0
1442.0 11135.0
735.0 11136.0
841.0 11136.0
866.0 11136.0
1165.0 11136.0
347.0 11137.0
547.0 11137.0
680.0 11137.0
991.0 11137.0
1012.0 11137.0
1337.0 11137.0
62.0 11138.0
286.0 11138.0
763.0 11138.0
839.0 11138.0
950.0 11138.0
1114.0 11138.0
1222.0 11138.0
167.0 11139.0
456.0 11139.0
632.0 11139.0
708.0 11139.0
714.0 11139.0
762.0 11139.0
827.0 11139.0
949.0 11139.0
1442.0 11139.0
26.0 11140.0
591.0 11140.0
680.0 11140.0
837.0 11140.0
842.0 11140.0
1068.0 11140.0
1088.0 11140.0
763.0 11141.0
860.0 11141.0
973.0 11141.0
981.0 11141.0
1087.0 11141.0
1135.0 11141.0
1251.0 11141.0
1390.0 11141.0
852.0 11142.0
859.0 11142.0
861.0 11142.0
680.0 11143.0
738.0 11143.0
941.0 11143.0
960.0 11143.0
1118.0 11143.0
1156.0 11143.0
1204.0 11143.0
1442.0 11143.0
241.0 11144.0
328.0 11144.0
763.0 11144.0
1016.0 11144.0
1205.0 11144.0
258.0 11145.0
468.0 11145.0
487.0 11145.0
599.0 11145.0
625.0 11145.0
679.0 11145.0
698.0 11145.0
1172.0 11145.0
166.0 11146.0
435.0 11146.0
580.0 11146.0
607.0 11146.0
680.0 11146.0
1134.0 11146.0
1417.0 11146.0
1423.0 11146.0
112.0 11147.0
227.0 11147.0
718.0 11147.0
763.0 11147.0
866.0 11147.0
1442.0 11147.0
26.0 11148.0
165.0 11148.0
426.0 11148.0
475.0 11148.0
601.0 11148.0
1075.0 11148.0
1084.0 11148.0
1117.0 11148.0
1226.0 11148.0
449.0 11149.0
612.0 11149.0
680.0 11149.0
686.0 11149.0
857.0 11149.0
880.0 11149.0
959.0 11149.0
1001.0 11149.0
366.0 11150.0
696.0 11150.0
725.0 11150.0
763.0 11150.0
1014.0 11150.0
232.0 11151.0
347.0 11151.0
736.0 11151.0
989.0 11151.0
1018.0 11151.0
1442.0 11151.0
466.0 11152.0
540.0 11152.0
589.0 11152.0
623.0 11152.0
680.0 11152.0
709.0 11152.0
843.0 11152.0
994.0 11152.0
1105.0 11152.0
1345.0 11152.0
1418.0 11152.0
296.0 11153.0
303.0 11153.0
450.0 11153.0
763.0 11153.0
1252.0 11153.0
1254.0 11153.0
159.0 11154.0
224.0 11154.0
695.0 11154.0
1038.0 11154.0
1340.0 11154.0
415.0 11155.0
680.0 11155.0
735.0 11155.0
805.0 11155.0
841.0 11155.0
991.0 11155.0
1442.0 11155.0
26.0 11156.0
478.0 11156.0
591.0 11156.0
615.0 11156.0
734.0 11156.0
743.0 11156.0
751.0 11156.0
763.0 11156.0
811.0 11156.0
860.0 11156.0
1012.0 11156.0
1222.0 11156.0
1404.0 11156.0
382.0 11157.0
456.0 11157.0
717.0 11157.0
726.0 11157.0
949.0 11157.0
950.0 11157.0
1165.0 11157.0
1253.0 11157.0
77.0 11158.0
157.0 11158.0
474.0 11158.0
558.0 11158.0
599.0 11158.0
613.0 11158.0
680.0 11158.0
714.0 11158.0
866.0 11158.0
975.0 11158.0
1114.0 11158.0
1337.0 11158.0
185.0 11159.0
334.0 11159.0
763.0 11159.0
861.0 11159.0
870.0 11159.0
1251.0 11159.0
1442.0 11159.0
217.0 11160.0
306.0 11160.0
428.0 11160.0
973.0 11160.0
1196.0 11160.0
605.0 11161.0
680.0 11161.0
745.0 11161.0
842.0 11161.0
852.0 11161.0
1068.0 11161.0
1087.0 11161.0
1088.0 11161.0
763.0 11162.0
1135.0 11162.0
1390.0 11162.0
407.0 11163.0
434.0 11163.0
445.0 11163.0
754.0 11163.0
831.0 11163.0
1118.0 11163.0
1156.0 11163.0
1442.0 11163.0
347.0 11164.0
477.0 11164.0
632.0 11164.0
680.0 11164.0
738.0 11164.0
833.0 11164.0
1133.0 11164.0
1204.0 11164.0
26.0 11165.0
671.0 11165.0
763.0 11165.0
941.0 11165.0
1016.0 11165.0
1107.0 11165.0
259.0 11166.0
377.0 11166.0
1172.0 11166.0
1226.0 11166.0
680.0 11167.0
736.0 11167.0
857.0 11167.0
1031.0 11167.0
1442.0 11167.0
14.0 11168.0
286.0 11168.0
763.0 11168.0
1417.0 11168.0
1423.0 11168.0
241.0 11169.0
725.0 11169.0
843.0 11169.0
847.0 11169.0
866.0 11169.0
880.0 11169.0
1001.0 11169.0
1075.0 11169.0
62.0 11170.0
87.0 11170.0
235.0 11170.0
680.0 11170.0
886.0 11170.0
959.0 11170.0
1105.0 11170.0
129.0 11171.0
435.0 11171.0
763.0 11171.0
860.0 11171.0
992.0 11171.0
1022.0 11171.0
1442.0 11171.0
591.0 11172.0
599.0 11172.0
708.0 11172.0
735.0 11172.0
680.0 11173.0
1345.0 11173.0
1418.0 11173.0
456.0 11174.0
763.0 11174.0
1038.0 11174.0
1148.0 11174.0
1254.0 11174.0
26.0 11175.0
567.0 11175.0
841.0 11175.0
949.0 11175.0
991.0 11175.0
1012.0 11175.0
1340.0 11175.0
1442.0 11175.0
607.0 11176.0
680.0 11176.0
894.0 11176.0
1010.0 11176.0
1222.0 11176.0
112.0 11177.0
383.0 11177.0
677.0 11177.0
718.0 11177.0
763.0 11177.0
861.0 11177.0
950.0 11177.0
1404.0 11177.0
347.0 11178.0
631.0 11178.0
714.0 11178.0
1114.0 11178.0
227.0 11179.0
598.0 11179.0
680.0 11179.0
881.0 11179.0
1251.0 11179.0
1253.0 11179.0
1337.0 11179.0
1442.0 11179.0
167.0 11180.0
232.0 11180.0
328.0 11180.0
366.0 11180.0
487.0 11180.0
763.0 11180.0
866.0 11180.0
973.0 11180.0
1165.0 11180.0
166.0 11181.0
258.0 11181.0
303.0 11181.0
375.0 11181.0
744.0 11181.0
852.0 11181.0
580.0 11182.0
680.0 11182.0
704.0 11182.0
709.0 11182.0
1068.0 11182.0
1144.0 11182.0
1262.0 11182.0
1390.0 11182.0
224.0 11183.0
493.0 11183.0
623.0 11183.0
736.0 11183.0
763.0 11183.0
842.0 11183.0
1087.0 11183.0
1156.0 11183.0
1442.0 11183.0
1088.0 11184.0
1118.0 11184.0
1135.0 11184.0
26.0 11185.0
296.0 11185.0
344.0 11185.0
355.0 11185.0
638.0 11185.0
641.0 11185.0
680.0 11185.0
738.0 11185.0
857.0 11185.0
1204.0 11185.0
450.0 11186.0
599.0 11186.0
707.0 11186.0
763.0 11186.0
843.0 11186.0
889.0 11186.0
1172.0 11186.0
1226.0 11186.0
368.0 11187.0
558.0 11187.0
581.0 11187.0
860.0 11187.0
1016.0 11187.0
1442.0 11187.0
591.0 11188.0
680.0 11188.0
725.0 11188.0
762.0 11188.0
941.0 11188.0
1001.0 11188.0
1105.0 11188.0
334.0 11189.0
588.0 11189.0
590.0 11189.0
763.0 11189.0
875.0 11189.0
880.0 11189.0
883.0 11189.0
1300.0 11189.0
1305.0 11189.0
185.0 11190.0
605.0 11190.0
705.0 11190.0
735.0 11190.0
801.0 11190.0
859.0 11190.0
1244.0 11190.0
1423.0 11190.0
306.0 11191.0
456.0 11191.0
476.0 11191.0
680.0 11191.0
737.0 11191.0
866.0 11191.0
959.0 11191.0
1075.0 11191.0
1417.0 11191.0
1442.0 11191.0
159.0 11192.0
165.0 11192.0
347.0 11192.0
632.0 11192.0
679.0 11192.0
745.0 11192.0
763.0 11192.0
601.0 11193.0
861.0 11193.0
911.0 11193.0
157.0 11194.0
217.0 11194.0
428.0 11194.0
438.0 11194.0
496.0 11194.0
680.0 11194.0
827.0 11194.0
841.0 11194.0
949.0 11194.0
1021.0 11194.0
1038.0 11194.0
1254.0 11194.0
1345.0 11194.0
466.0 11195.0
482.0 11195.0
763.0 11195.0
991.0 11195.0
1012.0 11195.0
1418.0 11195.0
467.0 11196.0
716.0 11196.0
832.0 11196.0
960.0 11196.0
971.0 11196.0
1222.0 11196.0
1340.0 11196.0
1442.0 11196.0
297.0 11197.0
382.0 11197.0
434.0 11197.0
468.0 11197.0
513.0 11197.0
714.0 11197.0
837.0 11197.0
950.0 11197.0
1114.0 11197.0
1134.0 11197.0
1271.0 11197.0
502.0 11198.0
568.0 11198.0
734.0 11198.0
736.0 11198.0
1014.0 11198.0
1251.0 11198.0
1404.0 11198.0
158.0 11199.0
195.0 11199.0
241.0 11199.0
600.0 11199.0
852.0 11199.0
994.0 11199.0
1136.0 11199.0
599.0 11200.0
612.0 11200.0
680.0 11200.0
973.0 11200.0
981.0 11200.0
1337.0 11200.0
