241.0 11523.0
334.0 11532.0
347.0 11436.0
347.0 11454.0
347.0 11471.0
347.0 11488.0
347.0 11505.0
347.0 11522.0
347.0 11541.0
347.0 11566.0
347.0 11594.0
347.0 11632.0
407.0 11538.0
456.0 11436.0
456.0 11454.0
456.0 11472.0
456.0 11490.0
456.0 11508.0
456.0 11526.0
456.0 11546.0
456.0 11572.0
456.0 11601.0
466.0 11517.0
475.0 11507.0
478.0 11502.0
591.0 11435.0
591.0 11451.0
591.0 11468.0
591.0 11484.0
591.0 11500.0
591.0 11517.0
591.0 11533.0
591.0 11552.0
591.0 11575.0
591.0 11600.0
591.0 11632.0
599.0 11436.0
599.0 11454.0
599.0 11472.0
599.0 11489.0
599.0 11507.0
599.0 11524.0
599.0 11542.0
599.0 11566.0
599.0 11592.0
599.0 11626.0
605.0 11511.0
612.0 11498.0
625.0 11479.0
671.0 11480.0
671.0 11537.0
677.0 11506.0
679.0 11505.0
680.0 11406.0
680.0 11410.0
680.0 11414.0
680.0 11417.0
680.0 11421.0
680.0 11424.0
680.0 11428.0
680.0 11431.0
680.0 11434.0
680.0 11437.0
680.0 11440.0
680.0 11443.0
680.0 11446.0
680.0 11449.0
680.0 11452.0
680.0 11455.0
680.0 11458.0
680.0 11461.0
680.0 11464.0
680.0 11467.0
680.0 11470.0
680.0 11473.0
680.0 11476.0
680.0 11479.0
680.0 11482.0
680.0 11485.0
680.0 11488.0
680.0 11491.0
680.0 11494.0
680.0 11497.0
680.0 11500.0
680.0 11503.0
680.0 11506.0
680.0 11509.0
680.0 11512.0
680.0 11515.0
680.0 11518.0
680.0 11521.0
680.0 11524.0
680.0 11527.0
680.0 11530.0
680.0 11533.0
680.0 11536.0
680.0 11539.0
680.0 11542.0
680.0 11546.0
680.0 11550.0
680.0 11554.0
680.0 11557.0
680.0 11561.0
680.0 11565.0
680.0 11568.0
680.0 11572.0
680.0 11576.0
680.0 11580.0
680.0 11584.0
680.0 11587.0
680.0 11591.0
680.0 11595.0
680.0 11598.0
680.0 11602.0
680.0 11606.0
680.0 11610.0
680.0 11614.0
680.0 11617.0
680.0 11621.0
680.0 11625.0
680.0 11628.0
680.0 11632.0
680.0 11636.0
680.0 11640.0
680.0 11644.0
680.0 11647.0
680.0 11651.0
680.0 11655.0
680.0 11658.0
680.0 11662.0
680.0 11666.0
680.0 11670.0
680.0 11674.0
680.0 11678.0
680.0 11682.0
680.0 11686.0
680.0 11690.0
680.0 11694.0
680.0 11698.0
680.0 11702.0
680.0 11706.0
680.0 11710.0
680.0 11714.0
680.0 11718.0
680.0 11722.0
680.0 11726.0
680.0 11730.0
680.0 11734.0
680.0 11738.0
680.0 11742.0
680.0 11746.0
680.0 11750.0
680.0 11754.0
680.0 11758.0
680.0 11762.0
680.0 11766.0
680.0 11770.0
680.0 11774.0
680.0 11778.0
680.0 11782.0
680.0 11786.0
680.0 11790.0
680.0 11794.0
695.0 11529.0
698.0 11538.0
704.0 11534.0
714.0 11443.0
714.0 11467.0
714.0 11492.0
714.0 11517.0
714.0 11539.0
714.0 11564.0
714.0 11589.0
714.0 11613.0
714.0 11638.0
714.0 11664.0
714.0 11690.0
714.0 11713.0
714.0 11735.0
714.0 11757.0
714.0 11779.0
714.0 11800.0
717.0 11510.0
725.0 11442.0
725.0 11466.0
725.0 11491.0
725.0 11515.0
725.0 11538.0
725.0 11565.0
725.0 11592.0
725.0 11627.0
726.0 11519.0
735.0 11440.0
735.0 11464.0
735.0 11489.0
735.0 11513.0
735.0 11536.0
735.0 11563.0
735.0 11588.0
735.0 11625.0
736.0 11435.0
736.0 11452.0
736.0 11469.0
736.0 11487.0
736.0 11504.0
736.0 11522.0
736.0 11541.0
736.0 11565.0
736.0 11593.0
736.0 11631.0
738.0 11443.0
738.0 11470.0
738.0 11498.0
738.0 11524.0
738.0 11549.0
738.0 11576.0
738.0 11604.0
738.0 11632.0
738.0 11660.0
738.0 11688.0
738.0 11712.0
738.0 11735.0
738.0 11757.0
738.0 11780.0
754.0 11507.0
763.0 11406.0
763.0 11410.0
763.0 11413.0
763.0 11417.0
763.0 11420.0
763.0 11424.0
763.0 11427.0
763.0 11430.0
763.0 11433.0
763.0 11436.0
763.0 11439.0
763.0 11442.0
763.0 11445.0
763.0 11448.0
763.0 11451.0
763.0 11454.0
763.0 11457.0
763.0 11460.0
763.0 11463.0
763.0 11466.0
763.0 11469.0
763.0 11472.0
763.0 11475.0
763.0 11478.0
763.0 11481.0
763.0 11484.0
763.0 11487.0
763.0 11490.0
763.0 11493.0
763.0 11496.0
763.0 11499.0
763.0 11502.0
763.0 11505.0
763.0 11508.0
763.0 11511.0
763.0 11514.0
763.0 11517.0
763.0 11520.0
763.0 11523.0
763.0 11526.0
763.0 11530.0
763.0 11534.0
763.0 11538.0
763.0 11542.0
763.0 11546.0
763.0 11550.0
763.0 11554.0
763.0 11558.0
763.0 11562.0
763.0 11566.0
763.0 11570.0
763.0 11574.0
763.0 11578.0
763.0 11582.0
763.0 11587.0
763.0 11591.0
763.0 11596.0
763.0 11602.0
763.0 11608.0
763.0 11614.0
763.0 11620.0
763.0 11627.0
763.0 11635.0
763.0 11797.0
801.0 11499.0
827.0 11476.0
827.0 11530.0
833.0 11532.0
841.0 11436.0
841.0 11456.0
841.0 11475.0
841.0 11494.0
841.0 11513.0
841.0 11532.0
841.0 11560.0
841.0 11590.0
842.0 11443.0
842.0 11473.0
842.0 11506.0
842.0 11533.0
842.0 11563.0
842.0 11593.0
842.0 11623.0
842.0 11652.0
842.0 11681.0
842.0 11708.0
842.0 11732.0
842.0 11756.0
842.0 11780.0
843.0 11436.0
843.0 11454.0
843.0 11472.0
843.0 11490.0
843.0 11508.0
843.0 11526.0
843.0 11546.0
843.0 11572.0
843.0 11602.0
852.0 11441.0
852.0 11465.0
852.0 11490.0
852.0 11514.0
852.0 11537.0
852.0 11562.0
852.0 11588.0
852.0 11613.0
852.0 11638.0
852.0 11664.0
852.0 11690.0
852.0 11714.0
852.0 11736.0
852.0 11758.0
852.0 11780.0
857.0 11443.0
857.0 11467.0
857.0 11491.0
857.0 11514.0
857.0 11536.0
857.0 11560.0
857.0 11583.0
857.0 11606.0
857.0 11629.0
857.0 11653.0
857.0 11676.0
857.0 11700.0
857.0 11720.0
857.0 11740.0
857.0 11760.0
857.0 11780.0
857.0 11800.0
860.0 11434.0
860.0 11450.0
860.0 11467.0
860.0 11483.0
860.0 11499.0
860.0 11515.0
860.0 11531.0
860.0 11550.0
860.0 11573.0
860.0 11597.0
860.0 11627.0
861.0 11436.0
861.0 11455.0
861.0 11473.0
861.0 11491.0
861.0 11509.0
861.0 11527.0
861.0 11548.0
861.0 11574.0
861.0 11606.0
866.0 11428.0
866.0 11442.0
866.0 11454.0
866.0 11467.0
866.0 11480.0
866.0 11493.0
866.0 11506.0
866.0 11518.0
866.0 11531.0
866.0 11544.0
866.0 11559.0
866.0 11573.0
866.0 11588.0
866.0 11603.0
866.0 11620.0
866.0 11637.0
866.0 11659.0
866.0 11685.0
866.0 11709.0
866.0 11730.0
866.0 11752.0
866.0 11774.0
866.0 11796.0
870.0 11505.0
880.0 11443.0
880.0 11469.0
880.0 11496.0
880.0 11523.0
880.0 11553.0
880.0 11580.0
880.0 11614.0
881.0 11511.0
889.0 11529.0
894.0 11503.0
941.0 11443.0
941.0 11472.0
941.0 11503.0
941.0 11530.0
941.0 11560.0
941.0 11589.0
941.0 11618.0
941.0 11648.0
941.0 11675.0
941.0 11703.0
941.0 11727.0
941.0 11750.0
941.0 11773.0
941.0 11796.0
942.0 11523.0
949.0 11442.0
949.0 11466.0
949.0 11491.0
949.0 11516.0
949.0 11537.0
949.0 11561.0
949.0 11585.0
949.0 11610.0
949.0 11634.0
949.0 11659.0
949.0 11683.0
949.0 11706.0
949.0 11726.0
949.0 11746.0
949.0 11766.0
949.0 11787.0
950.0 11442.0
950.0 11470.0
950.0 11498.0
950.0 11522.0
950.0 11547.0
950.0 11575.0
950.0 11602.0
950.0 11629.0
950.0 11655.0
950.0 11681.0
950.0 11706.0
950.0 11728.0
950.0 11750.0
950.0 11772.0
950.0 11794.0
951.0 11774.0
959.0 11443.0
959.0 11472.0
959.0 11502.0
959.0 11527.0
959.0 11555.0
959.0 11583.0
959.0 11611.0
959.0 11639.0
959.0 11665.0
959.0 11692.0
959.0 11715.0
959.0 11737.0
959.0 11759.0
959.0 11782.0
973.0 11441.0
973.0 11466.0
973.0 11492.0
973.0 11517.0
973.0 11540.0
973.0 11566.0
973.0 11591.0
973.0 11616.0
973.0 11640.0
973.0 11665.0
973.0 11690.0
973.0 11712.0
973.0 11733.0
973.0 11754.0
973.0 11775.0
973.0 11796.0
981.0 11536.0
989.0 11505.0
991.0 11442.0
991.0 11466.0
991.0 11493.0
991.0 11517.0
991.0 11540.0
991.0 11564.0
991.0 11589.0
991.0 11614.0
991.0 11638.0
991.0 11662.0
991.0 11687.0
991.0 11709.0
991.0 11729.0
991.0 11749.0
991.0 11769.0
991.0 11789.0
1001.0 11441.0
1001.0 11469.0
1001.0 11497.0
1001.0 11522.0
1001.0 11554.0
1001.0 11582.0
1001.0 11624.0
1012.0 11440.0
1012.0 11466.0
1012.0 11493.0
1012.0 11519.0
1012.0 11550.0
1012.0 11578.0
1012.0 11612.0
1014.0 11505.0
1016.0 11444.0
1016.0 11475.0
1016.0 11506.0
1016.0 11533.0
1016.0 11567.0
1016.0 11599.0
1018.0 11500.0
1038.0 11440.0
1038.0 11465.0
1038.0 11490.0
1038.0 11514.0
1038.0 11539.0
1038.0 11567.0
1038.0 11594.0
1038.0 11638.0
1068.0 11443.0
1068.0 11471.0
1068.0 11500.0
1068.0 11526.0
1068.0 11553.0
1068.0 11580.0
1068.0 11606.0
1068.0 11632.0
1068.0 11659.0
1068.0 11685.0
1068.0 11709.0
1068.0 11730.0
1068.0 11751.0
1068.0 11772.0
1068.0 11793.0
1075.0 11443.0
1075.0 11471.0
1075.0 11501.0
1075.0 11528.0
1075.0 11556.0
1075.0 11584.0
1075.0 11612.0
1075.0 11640.0
1075.0 11667.0
1075.0 11694.0
1075.0 11718.0
1075.0 11740.0
1075.0 11762.0
1075.0 11784.0
1084.0 11533.0
1087.0 11443.0
1087.0 11470.0
1087.0 11500.0
1087.0 11526.0
1087.0 11554.0
1087.0 11581.0
1087.0 11608.0
1087.0 11635.0
1087.0 11662.0
1087.0 11689.0
1087.0 11713.0
1087.0 11735.0
1087.0 11757.0
1087.0 11779.0
1088.0 11443.0
1088.0 11471.0
1088.0 11500.0
1088.0 11527.0
1088.0 11557.0
1088.0 11584.0
1088.0 11612.0
1088.0 11639.0
1088.0 11666.0
1088.0 11694.0
1088.0 11718.0
1088.0 11741.0
1088.0 11764.0
1088.0 11787.0
1105.0 11441.0
1105.0 11464.0
1105.0 11488.0
1105.0 11511.0
1105.0 11532.0
1105.0 11555.0
1105.0 11578.0
1105.0 11601.0
1105.0 11624.0
1105.0 11648.0
1105.0 11671.0
1105.0 11695.0
1105.0 11716.0
1105.0 11736.0
1105.0 11756.0
1105.0 11776.0
1105.0 11796.0
1114.0 11442.0
1114.0 11469.0
1114.0 11496.0
1114.0 11521.0
1114.0 11545.0
1114.0 11571.0
1114.0 11596.0
1114.0 11621.0
1114.0 11646.0
1114.0 11671.0
1114.0 11697.0
1114.0 11719.0
1114.0 11741.0
1114.0 11763.0
1114.0 11785.0
1118.0 11443.0
1118.0 11472.0
1118.0 11502.0
1118.0 11529.0
1118.0 11555.0
1118.0 11582.0
1118.0 11610.0
1118.0 11637.0
1118.0 11664.0
1118.0 11691.0
1118.0 11715.0
1118.0 11737.0
1118.0 11759.0
1118.0 11782.0
1134.0 11525.0
1135.0 11445.0
1135.0 11476.0
1135.0 11506.0
1135.0 11534.0
1135.0 11562.0
1135.0 11591.0
1135.0 11620.0
1135.0 11649.0
1135.0 11676.0
1135.0 11703.0
1135.0 11726.0
1135.0 11749.0
1135.0 11772.0
1135.0 11795.0
1148.0 11520.0
1156.0 11440.0
1156.0 11466.0
1156.0 11495.0
1156.0 11521.0
1156.0 11551.0
1156.0 11578.0
1156.0 11611.0
1165.0 11440.0
1165.0 11466.0
1165.0 11494.0
1165.0 11520.0
1165.0 11551.0
1165.0 11579.0
1165.0 11619.0
1172.0 11440.0
1172.0 11465.0
1172.0 11492.0
1172.0 11518.0
1172.0 11546.0
1172.0 11575.0
1172.0 11607.0
1204.0 11443.0
1204.0 11471.0
1204.0 11500.0
1204.0 11526.0
1204.0 11551.0
1204.0 11578.0
1204.0 11604.0
1204.0 11631.0
1204.0 11659.0
1204.0 11686.0
1204.0 11711.0
1204.0 11733.0
1204.0 11755.0
1204.0 11777.0
1204.0 11799.0
1222.0 11444.0
1222.0 11470.0
1222.0 11498.0
1222.0 11522.0
1222.0 11546.0
1222.0 11572.0
1222.0 11598.0
1222.0 11624.0
1222.0 11650.0
1222.0 11674.0
1222.0 11699.0
1222.0 11720.0
1222.0 11741.0
1222.0 11762.0
1222.0 11783.0
1226.0 11441.0
1226.0 11466.0
1226.0 11493.0
1226.0 11517.0
1226.0 11540.0
1226.0 11565.0
1226.0 11590.0
1226.0 11616.0
1226.0 11642.0
1226.0 11667.0
1226.0 11694.0
1226.0 11717.0
1226.0 11739.0
1226.0 11761.0
1226.0 11782.0
1251.0 11441.0
1251.0 11467.0
1251.0 11493.0
1251.0 11518.0
1251.0 11544.0
1251.0 11572.0
1251.0 11601.0
1252.0 11523.0
1253.0 11441.0
1253.0 11470.0
1253.0 11500.0
1253.0 11528.0
1253.0 11561.0
1253.0 11593.0
1254.0 11443.0
1254.0 11470.0
1254.0 11498.0
1254.0 11524.0
1254.0 11549.0
1254.0 11576.0
1254.0 11604.0
1254.0 11631.0
1254.0 11658.0
1254.0 11684.0
1254.0 11709.0
1254.0 11731.0
1254.0 11753.0
1254.0 11775.0
1254.0 11797.0
1262.0 11531.0
1337.0 11442.0
1337.0 11469.0
1337.0 11498.0
1337.0 11524.0
1337.0 11548.0
1337.0 11574.0
1337.0 11601.0
1337.0 11627.0
1337.0 11653.0
1337.0 11677.0
1337.0 11701.0
1337.0 11722.0
1337.0 11743.0
1337.0 11764.0
1337.0 11785.0
1340.0 11442.0
1340.0 11469.0
1340.0 11496.0
1340.0 11521.0
1340.0 11546.0
1340.0 11573.0
1340.0 11599.0
1340.0 11625.0
1340.0 11652.0
1340.0 11676.0
1340.0 11701.0
1340.0 11723.0
1340.0 11745.0
1340.0 11766.0
1340.0 11787.0
1345.0 11443.0
1345.0 11470.0
1345.0 11498.0
1345.0 11524.0
1345.0 11549.0
1345.0 11575.0
1345.0 11601.0
1345.0 11628.0
1345.0 11654.0
1345.0 11678.0
1345.0 11702.0
1345.0 11723.0
1345.0 11744.0
1345.0 11765.0
1345.0 11786.0
1390.0 11441.0
1390.0 11467.0
1390.0 11493.0
1390.0 11519.0
1390.0 11547.0
1390.0 11574.0
1390.0 11602.0
1404.0 11443.0
1404.0 11470.0
1404.0 11499.0
1404.0 11526.0
1404.0 11558.0
1404.0 11587.0
1404.0 11627.0
1417.0 11446.0
1417.0 11476.0
1417.0 11506.0
1417.0 11533.0
1417.0 11562.0
1417.0 11591.0
1417.0 11620.0
1417.0 11650.0
1417.0 11677.0
1417.0 11704.0
1417.0 11728.0
1417.0 11752.0
1417.0 11776.0
1417.0 11800.0
1418.0 11443.0
1418.0 11470.0
1418.0 11499.0
1418.0 11525.0
1418.0 11551.0
1418.0 11578.0
1418.0 11606.0
1418.0 11634.0
1418.0 11661.0
1418.0 11688.0
1418.0 11712.0
1418.0 11734.0
1418.0 11756.0
1418.0 11779.0
1423.0 11443.0
1423.0 11470.0
1423.0 11498.0
1423.0 11524.0
1423.0 11549.0
1423.0 11575.0
1423.0 11601.0
1423.0 11627.0
1423.0 11653.0
1423.0 11678.0
1423.0 11703.0
1423.0 11724.0
1423.0 11745.0
1423.0 11766.0
1423.0 11787.0
1442.0 11407.0
1442.0 11412.0
1442.0 11417.0
1442.0 11422.0
1442.0 11427.0
1442.0 11432.0
1442.0 11437.0
1442.0 11442.0
1442.0 11447.0
1442.0 11453.0
1442.0 11459.0
1442.0 11465.0
1442.0 11471.0
1442.0 11477.0
1442.0 11483.0
1442.0 11489.0
1442.0 11495.0
1442.0 11501.0
1442.0 11506.0
1442.0 11511.0
1442.0 11516.0
1442.0 11521.0
1442.0 11526.0
1442.0 11531.0
1442.0 11536.0
1442.0 11541.0
1442.0 11546.0
1442.0 11550.0
1442.0 11554.0
1442.0 11558.0
1442.0 11562.0
1442.0 11566.0
1442.0 11570.0
1442.0 11574.0
1442.0 11578.0
1442.0 11582.0
1442.0 11586.0
1442.0 11590.0
1442.0 11594.0
1442.0 11598.0
1442.0 11602.0
1442.0 11606.0
1442.0 11610.0
1442.0 11614.0
1442.0 11618.0
1442.0 11622.0
1442.0 11626.0
1442.0 11630.0
1442.0 11634.0
1442.0 11638.0
1442.0 11642.0
1442.0 11646.0
1442.0 11650.0
1442.0 11654.0
1442.0 11657.0
1442.0 11661.0
1442.0 11665.0
1442.0 11668.0
1442.0 11672.0
1442.0 11676.0
1442.0 11680.0
1442.0 11683.0
1442.0 11687.0
1442.0 11690.0
1442.0 11694.0
1442.0 11697.0
1442.0 11700.0
1442.0 11703.0
1442.0 11706.0
1442.0 11709.0
1442.0 11712.0
1442.0 11715.0
1442.0 11718.0
1442.0 11721.0
1442.0 11724.0
1442.0 11727.0
1442.0 11730.0
1442.0 11733.0
1442.0 11736.0
1442.0 11739.0
1442.0 11742.0
1442.0 11745.0
1442.0 11748.0
1442.0 11751.0
1442.0 11754.0
1442.0 11757.0
1442.0 11760.0
1442.0 11763.0
1442.0 11766.0
1442.0 11769.0
1442.0 11772.0
1442.0 11775.0
1442.0 11778.0
1442.0 11781.0
1442.0 11784.0
1442.0 11787.0
1442.0 11790.0
1442.0 11793.0
1442.0 11796.0
