14.0 12095.0
14.0 12159.0
14.0 12223.0
14.0 12287.0
14.0 12334.0
14.0 12366.0
14.0 12398.0
26.0 12029.0
26.0 12036.0
26.0 12045.0
26.0 12052.0
26.0 12060.0
26.0 12068.0
26.0 12076.0
26.0 12084.0
26.0 12092.0
26.0 12100.0
26.0 12108.0
26.0 12116.0
26.0 12124.0
26.0 12132.0
26.0 12140.0
26.0 12148.0
26.0 12156.0
26.0 12164.0
26.0 12172.0
26.0 12180.0
26.0 12188.0
26.0 12196.0
26.0 12204.0
26.0 12212.0
26.0 12220.0
26.0 12228.0
26.0 12236.0
26.0 12244.0
26.0 12252.0
26.0 12260.0
26.0 12268.0
26.0 12276.0
26.0 12284.0
26.0 12292.0
26.0 12300.0
26.0 12308.0
26.0 12316.0
26.0 12324.0
26.0 12332.0
26.0 12340.0
26.0 12348.0
26.0 12356.0
26.0 12364.0
26.0 12372.0
26.0 12380.0
26.0 12388.0
26.0 12396.0
62.0 12090.0
62.0 12161.0
62.0 12226.0
62.0 12285.0
62.0 12331.0
62.0 12363.0
62.0 12395.0
87.0 12087.0
87.0 12175.0
87.0 12255.0
87.0 12319.0
87.0 12358.0
87.0 12392.0
112.0 12118.0
112.0 12158.0
112.0 12191.0
112.0 12221.0
112.0 12260.0
112.0 12295.0
112.0 12331.0
112.0 12362.0
112.0 12390.0
121.0 12385.0
129.0 12119.0
129.0 12159.0
129.0 12194.0
129.0 12232.0
129.0 12269.0
129.0 12305.0
129.0 12344.0
129.0 12383.0
157.0 12101.0
157.0 12178.0
157.0 12253.0
157.0 12307.0
157.0 12347.0
157.0 12381.0
158.0 12387.0
159.0 12100.0
159.0 12172.0
159.0 12244.0
159.0 12302.0
159.0 12343.0
159.0 12378.0
165.0 12308.0
165.0 12354.0
165.0 12396.0
166.0 12098.0
166.0 12170.0
166.0 12242.0
166.0 12305.0
166.0 12345.0
166.0 12377.0
167.0 12116.0
167.0 12210.0
167.0 12306.0
167.0 12347.0
167.0 12382.0
185.0 12082.0
185.0 12137.0
185.0 12192.0
185.0 12248.0
185.0 12304.0
185.0 12343.0
185.0 12372.0
185.0 12400.0
195.0 12380.0
217.0 12113.0
217.0 12152.0
217.0 12183.0
217.0 12215.0
217.0 12249.0
217.0 12284.0
217.0 12320.0
217.0 12353.0
217.0 12384.0
224.0 12098.0
224.0 12142.0
224.0 12171.0
224.0 12199.0
224.0 12230.0
224.0 12262.0
224.0 12294.0
224.0 12326.0
224.0 12356.0
224.0 12383.0
227.0 12113.0
227.0 12154.0
227.0 12188.0
227.0 12220.0
227.0 12257.0
227.0 12296.0
227.0 12336.0
227.0 12369.0
232.0 12098.0
232.0 12140.0
232.0 12169.0
232.0 12197.0
232.0 12225.0
232.0 12255.0
232.0 12286.0
232.0 12318.0
232.0 12348.0
232.0 12376.0
235.0 12196.0
235.0 12373.0
241.0 12096.0
241.0 12137.0
241.0 12165.0
241.0 12192.0
241.0 12221.0
241.0 12250.0
241.0 12281.0
241.0 12312.0
241.0 12344.0
241.0 12369.0
241.0 12395.0
258.0 12114.0
258.0 12154.0
258.0 12187.0
258.0 12218.0
258.0 12256.0
258.0 12292.0
258.0 12329.0
258.0 12362.0
258.0 12394.0
259.0 12124.0
259.0 12162.0
259.0 12196.0
259.0 12233.0
259.0 12273.0
259.0 12313.0
259.0 12350.0
259.0 12385.0
286.0 12092.0
286.0 12189.0
286.0 12268.0
286.0 12324.0
286.0 12361.0
286.0 12394.0
296.0 12083.0
296.0 12132.0
296.0 12179.0
296.0 12228.0
296.0 12275.0
296.0 12316.0
296.0 12348.0
296.0 12377.0
297.0 12375.0
303.0 12074.0
303.0 12122.0
303.0 12170.0
303.0 12214.0
303.0 12260.0
303.0 12305.0
303.0 12339.0
303.0 12366.0
303.0 12393.0
306.0 12084.0
306.0 12146.0
306.0 12212.0
306.0 12273.0
306.0 12324.0
306.0 12358.0
306.0 12388.0
328.0 12127.0
328.0 12164.0
328.0 12200.0
328.0 12237.0
328.0 12274.0
328.0 12312.0
328.0 12352.0
328.0 12386.0
334.0 12104.0
334.0 12145.0
334.0 12175.0
334.0 12203.0
334.0 12234.0
334.0 12269.0
334.0 12303.0
334.0 12337.0
334.0 12367.0
334.0 12394.0
347.0 12044.0
347.0 12066.0
347.0 12086.0
347.0 12105.0
347.0 12124.0
347.0 12141.0
347.0 12156.0
347.0 12172.0
347.0 12187.0
347.0 12202.0
347.0 12217.0
347.0 12233.0
347.0 12249.0
347.0 12265.0
347.0 12281.0
347.0 12297.0
347.0 12312.0
347.0 12327.0
347.0 12342.0
347.0 12355.0
347.0 12368.0
347.0 12381.0
347.0 12393.0
366.0 12096.0
366.0 12138.0
366.0 12168.0
366.0 12198.0
366.0 12226.0
366.0 12258.0
366.0 12290.0
366.0 12322.0
366.0 12353.0
366.0 12381.0
368.0 12379.0
375.0 12395.0
377.0 12212.0
377.0 12374.0
382.0 12130.0
382.0 12169.0
382.0 12207.0
382.0 12249.0
382.0 12290.0
382.0 12332.0
382.0 12371.0
383.0 12191.0
383.0 12367.0
407.0 12374.0
426.0 12374.0
428.0 12094.0
428.0 12154.0
428.0 12211.0
428.0 12267.0
428.0 12315.0
428.0 12348.0
428.0 12378.0
434.0 12090.0
434.0 12162.0
434.0 12234.0
434.0 12293.0
434.0 12337.0
434.0 12371.0
435.0 12101.0
435.0 12161.0
435.0 12209.0
435.0 12266.0
435.0 12317.0
435.0 12353.0
435.0 12380.0
436.0 12391.0
445.0 12377.0
449.0 12203.0
449.0 12359.0
449.0 12400.0
450.0 12083.0
450.0 12139.0
450.0 12187.0
450.0 12241.0
450.0 12291.0
450.0 12330.0
450.0 12361.0
450.0 12389.0
456.0 12058.0
456.0 12089.0
456.0 12118.0
456.0 12143.0
456.0 12164.0
456.0 12185.0
456.0 12206.0
456.0 12227.0
456.0 12249.0
456.0 12272.0
456.0 12294.0
456.0 12315.0
456.0 12335.0
456.0 12353.0
456.0 12371.0
456.0 12388.0
466.0 12175.0
466.0 12259.0
466.0 12354.0
468.0 12205.0
468.0 12356.0
474.0 12220.0
474.0 12361.0
475.0 12178.0
475.0 12283.0
475.0 12359.0
476.0 12358.0
477.0 12130.0
477.0 12202.0
477.0 12282.0
477.0 12336.0
477.0 12372.0
478.0 12218.0
478.0 12358.0
487.0 12115.0
487.0 12155.0
487.0 12187.0
487.0 12222.0
487.0 12263.0
487.0 12299.0
487.0 12338.0
487.0 12371.0
493.0 12200.0
493.0 12373.0
496.0 12378.0
513.0 12387.0
540.0 12395.0
547.0 12372.0
558.0 12083.0
558.0 12139.0
558.0 12195.0
558.0 12252.0
558.0 12301.0
558.0 12339.0
558.0 12370.0
558.0 12397.0
568.0 12391.0
580.0 12147.0
580.0 12260.0
580.0 12323.0
580.0 12361.0
580.0 12394.0
581.0 12385.0
588.0 12376.0
589.0 12378.0
591.0 12052.0
591.0 12081.0
591.0 12106.0
591.0 12129.0
591.0 12150.0
591.0 12170.0
591.0 12190.0
591.0 12209.0
591.0 12229.0
591.0 12250.0
591.0 12272.0
591.0 12292.0
591.0 12311.0
591.0 12330.0
591.0 12347.0
591.0 12363.0
591.0 12379.0
591.0 12394.0
598.0 12378.0
599.0 12044.0
599.0 12066.0
599.0 12085.0
599.0 12104.0
599.0 12123.0
599.0 12141.0
599.0 12158.0
599.0 12173.0
599.0 12189.0
599.0 12205.0
599.0 12221.0
599.0 12237.0
599.0 12253.0
599.0 12270.0
599.0 12286.0
599.0 12302.0
599.0 12318.0
599.0 12333.0
599.0 12347.0
599.0 12361.0
599.0 12374.0
599.0 12387.0
601.0 12196.0
601.0 12359.0
605.0 12093.0
605.0 12132.0
605.0 12161.0
605.0 12188.0
605.0 12217.0
605.0 12249.0
605.0 12281.0
605.0 12313.0
605.0 12343.0
605.0 12370.0
605.0 12394.0
607.0 12098.0
607.0 12154.0
607.0 12203.0
607.0 12261.0
607.0 12308.0
607.0 12345.0
607.0 12372.0
612.0 12178.0
612.0 12348.0
613.0 12214.0
613.0 12377.0
615.0 12389.0
623.0 12107.0
623.0 12147.0
623.0 12179.0
623.0 12210.0
623.0 12246.0
623.0 12282.0
623.0 12318.0
623.0 12351.0
623.0 12382.0
625.0 12174.0
625.0 12342.0
631.0 12215.0
631.0 12388.0
632.0 12091.0
632.0 12132.0
632.0 12163.0
632.0 12193.0
632.0 12221.0
632.0 12252.0
632.0 12283.0
632.0 12314.0
632.0 12345.0
632.0 12371.0
632.0 12397.0
638.0 12393.0
641.0 12196.0
641.0 12372.0
671.0 12355.0
677.0 12372.0
679.0 12352.0
679.0 12398.0
680.0 12007.0
680.0 12012.0
680.0 12016.0
680.0 12020.0
680.0 12024.0
680.0 12028.0
680.0 12032.0
680.0 12036.0
680.0 12040.0
680.0 12044.0
680.0 12048.0
680.0 12052.0
680.0 12056.0
680.0 12060.0
680.0 12064.0
680.0 12068.0
680.0 12072.0
680.0 12076.0
680.0 12080.0
680.0 12084.0
680.0 12088.0
680.0 12092.0
680.0 12096.0
680.0 12100.0
680.0 12104.0
680.0 12108.0
680.0 12112.0
680.0 12116.0
680.0 12120.0
680.0 12124.0
680.0 12128.0
680.0 12132.0
680.0 12136.0
680.0 12140.0
680.0 12144.0
680.0 12148.0
680.0 12152.0
680.0 12156.0
680.0 12160.0
680.0 12164.0
680.0 12168.0
680.0 12172.0
680.0 12176.0
680.0 12180.0
680.0 12184.0
680.0 12188.0
680.0 12192.0
680.0 12196.0
680.0 12200.0
680.0 12204.0
680.0 12208.0
680.0 12212.0
680.0 12216.0
680.0 12220.0
680.0 12224.0
680.0 12228.0
680.0 12232.0
680.0 12236.0
680.0 12240.0
680.0 12244.0
680.0 12248.0
680.0 12252.0
680.0 12256.0
680.0 12260.0
680.0 12264.0
680.0 12268.0
680.0 12272.0
680.0 12276.0
680.0 12280.0
680.0 12284.0
680.0 12287.0
680.0 12291.0
680.0 12295.0
680.0 12298.0
680.0 12302.0
680.0 12306.0
680.0 12310.0
680.0 12313.0
680.0 12317.0
680.0 12320.0
680.0 12324.0
680.0 12327.0
680.0 12330.0
680.0 12333.0
680.0 12336.0
680.0 12339.0
680.0 12342.0
680.0 12345.0
680.0 12348.0
680.0 12351.0
680.0 12354.0
680.0 12357.0
680.0 12360.0
680.0 12363.0
680.0 12366.0
680.0 12369.0
680.0 12372.0
680.0 12375.0
680.0 12378.0
680.0 12381.0
680.0 12384.0
680.0 12387.0
680.0 12390.0
680.0 12393.0
680.0 12396.0
687.0 12383.0
695.0 12370.0
696.0 12074.0
696.0 12131.0
696.0 12188.0
696.0 12235.0
696.0 12295.0
696.0 12354.0
698.0 12374.0
704.0 12355.0
705.0 12377.0
707.0 12381.0
708.0 12133.0
708.0 12171.0
708.0 12207.0
708.0 12250.0
708.0 12292.0
708.0 12334.0
708.0 12370.0
708.0 12398.0
709.0 12092.0
709.0 12148.0
709.0 12202.0
709.0 12253.0
709.0 12302.0
709.0 12338.0
709.0 12368.0
709.0 12394.0
714.0 12040.0
714.0 12065.0
714.0 12091.0
714.0 12118.0
714.0 12144.0
714.0 12170.0
714.0 12195.0
714.0 12219.0
714.0 12244.0
714.0 12270.0
714.0 12295.0
714.0 12319.0
714.0 12341.0
714.0 12361.0
714.0 12379.0
714.0 12398.0
716.0 12394.0
717.0 12361.0
718.0 12090.0
718.0 12146.0
718.0 12197.0
718.0 12252.0
718.0 12299.0
718.0 12338.0
718.0 12370.0
718.0 12397.0
725.0 12048.0
725.0 12075.0
725.0 12102.0
725.0 12127.0
725.0 12147.0
725.0 12166.0
725.0 12186.0
725.0 12206.0
725.0 12226.0
725.0 12246.0
725.0 12266.0
725.0 12286.0
725.0 12306.0
725.0 12327.0
725.0 12347.0
725.0 12366.0
725.0 12386.0
726.0 12193.0
726.0 12369.0
734.0 12066.0
734.0 12115.0
734.0 12163.0
734.0 12203.0
734.0 12250.0
734.0 12295.0
734.0 12340.0
734.0 12378.0
735.0 12048.0
735.0 12076.0
735.0 12101.0
735.0 12127.0
735.0 12148.0
735.0 12167.0
735.0 12187.0
735.0 12207.0
735.0 12226.0
735.0 12247.0
735.0 12267.0
735.0 12287.0
735.0 12307.0
735.0 12328.0
735.0 12348.0
735.0 12367.0
735.0 12386.0
736.0 12055.0
736.0 12083.0
736.0 12110.0
736.0 12134.0
736.0 12155.0
736.0 12176.0
736.0 12197.0
736.0 12216.0
736.0 12236.0
736.0 12257.0
736.0 12279.0
736.0 12299.0
736.0 12319.0
736.0 12338.0
736.0 12355.0
736.0 12372.0
736.0 12388.0
737.0 12399.0
738.0 12041.0
738.0 12067.0
738.0 12095.0
738.0 12124.0
738.0 12151.0
738.0 12178.0
738.0 12206.0
738.0 12234.0
738.0 12262.0
738.0 12290.0
738.0 12316.0
738.0 12339.0
738.0 12360.0
738.0 12380.0
743.0 12374.0
744.0 12067.0
744.0 12123.0
744.0 12174.0
744.0 12222.0
744.0 12274.0
744.0 12326.0
744.0 12370.0
745.0 12106.0
745.0 12148.0
745.0 12179.0
745.0 12210.0
745.0 12246.0
745.0 12282.0
745.0 12318.0
745.0 12354.0
745.0 12384.0
751.0 12379.0
754.0 12204.0
754.0 12362.0
762.0 12165.0
762.0 12229.0
762.0 12312.0
762.0 12368.0
763.0 12009.0
763.0 12015.0
763.0 12021.0
763.0 12027.0
763.0 12032.0
763.0 12038.0
763.0 12044.0
763.0 12050.0
763.0 12054.0
763.0 12059.0
763.0 12064.0
763.0 12068.0
763.0 12072.0
763.0 12076.0
763.0 12080.0
763.0 12084.0
763.0 12088.0
763.0 12092.0
763.0 12096.0
763.0 12100.0
763.0 12104.0
763.0 12108.0
763.0 12112.0
763.0 12116.0
763.0 12120.0
763.0 12123.0
763.0 12127.0
763.0 12130.0
763.0 12134.0
763.0 12137.0
763.0 12140.0
763.0 12143.0
763.0 12146.0
763.0 12149.0
763.0 12152.0
763.0 12155.0
763.0 12158.0
763.0 12161.0
763.0 12164.0
763.0 12167.0
763.0 12170.0
763.0 12173.0
763.0 12176.0
763.0 12179.0
763.0 12182.0
763.0 12185.0
763.0 12188.0
763.0 12191.0
763.0 12194.0
763.0 12197.0
763.0 12200.0
763.0 12203.0
763.0 12206.0
763.0 12209.0
763.0 12212.0
763.0 12215.0
763.0 12219.0
763.0 12222.0
763.0 12225.0
763.0 12228.0
763.0 12231.0
763.0 12235.0
763.0 12238.0
763.0 12241.0
763.0 12244.0
763.0 12247.0
763.0 12251.0
763.0 12254.0
763.0 12257.0
763.0 12260.0
763.0 12263.0
763.0 12267.0
763.0 12270.0
763.0 12273.0
763.0 12276.0
763.0 12279.0
763.0 12283.0
763.0 12286.0
763.0 12289.0
763.0 12292.0
763.0 12295.0
763.0 12299.0
763.0 12302.0
763.0 12305.0
763.0 12308.0
763.0 12311.0
763.0 12315.0
763.0 12318.0
763.0 12321.0
763.0 12324.0
763.0 12328.0
763.0 12331.0
763.0 12334.0
763.0 12337.0
763.0 12340.0
763.0 12343.0
763.0 12346.0
763.0 12349.0
763.0 12352.0
763.0 12355.0
763.0 12358.0
763.0 12361.0
763.0 12364.0
763.0 12367.0
763.0 12370.0
763.0 12373.0
763.0 12376.0
763.0 12379.0
763.0 12382.0
763.0 12385.0
763.0 12388.0
763.0 12391.0
763.0 12394.0
763.0 12397.0
801.0 12357.0
807.0 12380.0
811.0 12397.0
821.0 12391.0
827.0 12351.0
832.0 12393.0
833.0 12383.0
837.0 12381.0
839.0 12373.0
841.0 12063.0
841.0 12097.0
841.0 12128.0
841.0 12154.0
841.0 12179.0
841.0 12203.0
841.0 12227.0
841.0 12251.0
841.0 12277.0
841.0 12301.0
841.0 12324.0
841.0 12346.0
841.0 12366.0
841.0 12386.0
842.0 12039.0
842.0 12068.0
842.0 12099.0
842.0 12130.0
842.0 12161.0
842.0 12193.0
842.0 12222.0
842.0 12253.0
842.0 12283.0
842.0 12313.0
842.0 12338.0
842.0 12361.0
842.0 12382.0
843.0 12059.0
843.0 12090.0
843.0 12115.0
843.0 12140.0
843.0 12161.0
843.0 12182.0
843.0 12203.0
843.0 12223.0
843.0 12245.0
843.0 12267.0
843.0 12288.0
843.0 12309.0
843.0 12328.0
843.0 12347.0
843.0 12364.0
843.0 12381.0
843.0 12397.0
847.0 12393.0
852.0 12040.0
852.0 12065.0
852.0 12092.0
852.0 12118.0
852.0 12145.0
852.0 12171.0
852.0 12197.0
852.0 12222.0
852.0 12248.0
852.0 12273.0
852.0 12299.0
852.0 12323.0
852.0 12343.0
852.0 12363.0
852.0 12382.0
852.0 12400.0
857.0 12039.0
857.0 12062.0
857.0 12086.0
857.0 12111.0
857.0 12134.0
857.0 12158.0
857.0 12182.0
857.0 12205.0
857.0 12228.0
857.0 12252.0
857.0 12276.0
857.0 12299.0
857.0 12321.0
857.0 12341.0
857.0 12360.0
857.0 12378.0
857.0 12396.0
859.0 12380.0
860.0 12049.0
860.0 12077.0
860.0 12101.0
860.0 12125.0
860.0 12146.0
860.0 12165.0
860.0 12184.0
860.0 12203.0
860.0 12221.0
860.0 12241.0
860.0 12261.0
860.0 12281.0
860.0 12300.0
860.0 12319.0
860.0 12337.0
860.0 12353.0
860.0 12368.0
860.0 12383.0
860.0 12399.0
861.0 12059.0
861.0 12090.0
861.0 12117.0
861.0 12143.0
861.0 12165.0
861.0 12186.0
861.0 12207.0
861.0 12229.0
861.0 12251.0
861.0 12274.0
861.0 12296.0
861.0 12318.0
861.0 12338.0
861.0 12356.0
861.0 12374.0
861.0 12390.0
866.0 12031.0
866.0 12047.0
866.0 12063.0
866.0 12078.0
866.0 12093.0
866.0 12108.0
866.0 12122.0
866.0 12136.0
866.0 12149.0
866.0 12162.0
866.0 12175.0
866.0 12188.0
866.0 12200.0
866.0 12213.0
866.0 12226.0
866.0 12239.0
866.0 12252.0
866.0 12265.0
866.0 12278.0
866.0 12291.0
866.0 12304.0
866.0 12317.0
866.0 12330.0
866.0 12342.0
866.0 12354.0
866.0 12365.0
866.0 12376.0
866.0 12387.0
866.0 12398.0
870.0 12183.0
870.0 12359.0
880.0 12052.0
880.0 12082.0
880.0 12110.0
880.0 12135.0
880.0 12155.0
880.0 12174.0
880.0 12194.0
880.0 12214.0
880.0 12235.0
880.0 12255.0
880.0 12276.0
880.0 12298.0
880.0 12318.0
880.0 12339.0
880.0 12358.0
880.0 12379.0
880.0 12398.0
881.0 12199.0
881.0 12369.0
883.0 12201.0
883.0 12376.0
886.0 12380.0
889.0 12374.0
894.0 12201.0
894.0 12372.0
911.0 12386.0
941.0 12040.0
941.0 12068.0
941.0 12098.0
941.0 12128.0
941.0 12158.0
941.0 12188.0
941.0 12219.0
941.0 12250.0
941.0 12279.0
941.0 12309.0
941.0 12335.0
941.0 12358.0
941.0 12381.0
942.0 12389.0
949.0 12040.0
949.0 12065.0
949.0 12090.0
949.0 12114.0
949.0 12139.0
949.0 12163.0
949.0 12188.0
949.0 12214.0
949.0 12241.0
949.0 12266.0
949.0 12291.0
949.0 12314.0
949.0 12335.0
949.0 12354.0
949.0 12373.0
949.0 12392.0
950.0 12039.0
950.0 12066.0
950.0 12095.0
950.0 12125.0
950.0 12154.0
950.0 12185.0
950.0 12213.0
950.0 12241.0
950.0 12271.0
950.0 12299.0
950.0 12325.0
950.0 12348.0
950.0 12369.0
950.0 12390.0
959.0 12039.0
959.0 12066.0
959.0 12097.0
959.0 12126.0
959.0 12155.0
959.0 12183.0
959.0 12213.0
959.0 12243.0
959.0 12273.0
959.0 12301.0
959.0 12327.0
959.0 12349.0
959.0 12369.0
959.0 12389.0
960.0 12363.0
971.0 12380.0
973.0 12038.0
973.0 12062.0
973.0 12088.0
973.0 12114.0
973.0 12140.0
973.0 12166.0
973.0 12192.0
973.0 12218.0
973.0 12244.0
973.0 12270.0
973.0 12294.0
973.0 12318.0
973.0 12340.0
973.0 12360.0
973.0 12380.0
973.0 12400.0
981.0 12378.0
989.0 12185.0
989.0 12364.0
991.0 12038.0
991.0 12063.0
991.0 12089.0
991.0 12115.0
991.0 12141.0
991.0 12166.0
991.0 12190.0
991.0 12216.0
991.0 12242.0
991.0 12269.0
991.0 12292.0
991.0 12317.0
991.0 12338.0
991.0 12358.0
991.0 12377.0
991.0 12395.0
992.0 12211.0
992.0 12378.0
994.0 12186.0
994.0 12365.0
1001.0 12053.0
1001.0 12084.0
1001.0 12113.0
1001.0 12140.0
1001.0 12162.0
1001.0 12184.0
1001.0 12205.0
1001.0 12227.0
1001.0 12249.0
1001.0 12272.0
1001.0 12296.0
1001.0 12320.0
1001.0 12343.0
1001.0 12365.0
1001.0 12385.0
1003.0 12385.0
1010.0 12387.0
1012.0 12047.0
1012.0 12076.0
1012.0 12103.0
1012.0 12129.0
1012.0 12150.0
1012.0 12171.0
1012.0 12191.0
1012.0 12212.0
1012.0 12233.0
1012.0 12255.0
1012.0 12276.0
1012.0 12298.0
1012.0 12321.0
1012.0 12343.0
1012.0 12364.0
1012.0 12383.0
1014.0 12180.0
1014.0 12359.0
1016.0 12054.0
1016.0 12086.0
1016.0 12116.0
1016.0 12143.0
1016.0 12165.0
1016.0 12188.0
1016.0 12210.0
1016.0 12233.0
1016.0 12257.0
1016.0 12282.0
1016.0 12305.0
1016.0 12329.0
1016.0 12353.0
1016.0 12375.0
1016.0 12397.0
1018.0 12180.0
1018.0 12368.0
1021.0 12387.0
1022.0 12382.0
1031.0 12182.0
1031.0 12361.0
1038.0 12048.0
1038.0 12076.0
1038.0 12102.0
1038.0 12127.0
1038.0 12149.0
1038.0 12169.0
1038.0 12188.0
1038.0 12208.0
1038.0 12230.0
1038.0 12251.0
1038.0 12273.0
1038.0 12295.0
1038.0 12317.0
1038.0 12339.0
1038.0 12359.0
1038.0 12379.0
1038.0 12399.0
1067.0 12387.0
1068.0 12039.0
1068.0 12065.0
1068.0 12092.0
1068.0 12120.0
1068.0 12147.0
1068.0 12175.0
1068.0 12203.0
1068.0 12231.0
1068.0 12259.0
1068.0 12287.0
1068.0 12313.0
1068.0 12336.0
1068.0 12357.0
1068.0 12378.0
1068.0 12399.0
1075.0 12040.0
1075.0 12067.0
1075.0 12096.0
1075.0 12126.0
1075.0 12154.0
1075.0 12182.0
1075.0 12211.0
1075.0 12240.0
1075.0 12268.0
1075.0 12296.0
1075.0 12322.0
1075.0 12345.0
1075.0 12367.0
1075.0 12388.0
1084.0 12371.0
1087.0 12040.0
1087.0 12067.0
1087.0 12096.0
1087.0 12124.0
1087.0 12152.0
1087.0 12181.0
1087.0 12209.0
1087.0 12237.0
1087.0 12265.0
1087.0 12293.0
1087.0 12318.0
1087.0 12341.0
1087.0 12363.0
1087.0 12384.0
1088.0 12039.0
1088.0 12066.0
1088.0 12095.0
1088.0 12125.0
1088.0 12155.0
1088.0 12184.0
1088.0 12214.0
1088.0 12243.0
1088.0 12273.0
1088.0 12301.0
1088.0 12328.0
1088.0 12351.0
1088.0 12374.0
1088.0 12396.0
1105.0 12038.0
1105.0 12061.0
1105.0 12085.0
1105.0 12109.0
1105.0 12133.0
1105.0 12157.0
1105.0 12181.0
1105.0 12205.0
1105.0 12229.0
1105.0 12253.0
1105.0 12277.0
1105.0 12300.0
1105.0 12322.0
1105.0 12341.0
1105.0 12360.0
1105.0 12378.0
1105.0 12396.0
1110.0 12400.0
1114.0 12038.0
1114.0 12063.0
1114.0 12090.0
1114.0 12116.0
1114.0 12143.0
1114.0 12168.0
1114.0 12195.0
1114.0 12219.0
1114.0 12245.0
1114.0 12271.0
1114.0 12296.0
1114.0 12321.0
1114.0 12343.0
1114.0 12363.0
1114.0 12383.0
1117.0 12384.0
1118.0 12039.0
1118.0 12066.0
1118.0 12094.0
1118.0 12122.0
1118.0 12150.0
1118.0 12180.0
1118.0 12208.0
1118.0 12237.0
1118.0 12265.0
1118.0 12293.0
1118.0 12320.0
1118.0 12344.0
1118.0 12365.0
1118.0 12385.0
1127.0 12387.0
1133.0 12373.0
1134.0 12187.0
1134.0 12357.0
1135.0 12040.0
1135.0 12068.0
1135.0 12099.0
1135.0 12130.0
1135.0 12160.0
1135.0 12191.0
1135.0 12220.0
1135.0 12250.0
1135.0 12280.0
1135.0 12308.0
1135.0 12336.0
1135.0 12359.0
1135.0 12381.0
1136.0 12192.0
1144.0 12391.0
1148.0 12209.0
1148.0 12376.0
1156.0 12053.0
1156.0 12083.0
1156.0 12111.0
1156.0 12137.0
1156.0 12158.0
1156.0 12179.0
1156.0 12200.0
1156.0 12220.0
1156.0 12242.0
1156.0 12264.0
1156.0 12286.0
1156.0 12308.0
1156.0 12331.0
1156.0 12353.0
1156.0 12373.0
1156.0 12393.0
1165.0 12048.0
1165.0 12077.0
1165.0 12105.0
1165.0 12133.0
1165.0 12156.0
1165.0 12178.0
1165.0 12201.0
1165.0 12224.0
1165.0 12247.0
1165.0 12270.0
1165.0 12293.0
1165.0 12315.0
1165.0 12338.0
1165.0 12360.0
1165.0 12382.0
1172.0 12048.0
1172.0 12077.0
1172.0 12105.0
1172.0 12132.0
1172.0 12154.0
1172.0 12174.0
1172.0 12196.0
1172.0 12217.0
1172.0 12239.0
1172.0 12261.0
1172.0 12283.0
1172.0 12306.0
1172.0 12328.0
1172.0 12350.0
1172.0 12371.0
1172.0 12390.0
1196.0 12392.0
1204.0 12040.0
1204.0 12066.0
1204.0 12094.0
1204.0 12122.0
1204.0 12150.0
1204.0 12178.0
1204.0 12206.0
1204.0 12234.0
1204.0 12262.0
1204.0 12291.0
1204.0 12318.0
1204.0 12342.0
1204.0 12363.0
1204.0 12383.0
1205.0 12388.0
1222.0 12039.0
1222.0 12064.0
1222.0 12091.0
1222.0 12118.0
1222.0 12144.0
1222.0 12170.0
1222.0 12196.0
1222.0 12223.0
1222.0 12249.0
1222.0 12275.0
1222.0 12300.0
1222.0 12324.0
1222.0 12345.0
1222.0 12364.0
1222.0 12384.0
1226.0 12038.0
1226.0 12064.0
1226.0 12090.0
1226.0 12116.0
1226.0 12141.0
1226.0 12166.0
1226.0 12190.0
1226.0 12216.0
1226.0 12241.0
1226.0 12267.0
1226.0 12292.0
1226.0 12316.0
1226.0 12337.0
1226.0 12357.0
1226.0 12376.0
1226.0 12395.0
1251.0 12050.0
1251.0 12079.0
1251.0 12106.0
1251.0 12132.0
1251.0 12154.0
1251.0 12174.0
1251.0 12195.0
1251.0 12215.0
1251.0 12237.0
1251.0 12259.0
1251.0 12281.0
1251.0 12302.0
1251.0 12324.0
1251.0 12346.0
1251.0 12366.0
1251.0 12385.0
1252.0 12200.0
1252.0 12355.0
1253.0 12052.0
1253.0 12085.0
1253.0 12117.0
1253.0 12143.0
1253.0 12166.0
1253.0 12189.0
1253.0 12211.0
1253.0 12234.0
1253.0 12259.0
1253.0 12283.0
1253.0 12307.0
1253.0 12331.0
1253.0 12354.0
1253.0 12378.0
1253.0 12400.0
1254.0 12038.0
1254.0 12064.0
1254.0 12091.0
1254.0 12119.0
1254.0 12147.0
1254.0 12174.0
1254.0 12203.0
1254.0 12230.0
1254.0 12258.0
1254.0 12286.0
1254.0 12312.0
1254.0 12336.0
1254.0 12357.0
1254.0 12378.0
1254.0 12399.0
1262.0 12379.0
1271.0 12382.0
1305.0 12397.0
1337.0 12038.0
1337.0 12063.0
1337.0 12091.0
1337.0 12119.0
1337.0 12147.0
1337.0 12175.0
1337.0 12203.0
1337.0 12231.0
1337.0 12259.0
1337.0 12287.0
1337.0 12312.0
1337.0 12336.0
1337.0 12357.0
1337.0 12378.0
1337.0 12399.0
1340.0 12038.0
1340.0 12063.0
1340.0 12090.0
1340.0 12117.0
1340.0 12145.0
1340.0 12173.0
1340.0 12202.0
1340.0 12229.0
1340.0 12256.0
1340.0 12283.0
1340.0 12308.0
1340.0 12332.0
1340.0 12353.0
1340.0 12374.0
1340.0 12395.0
1345.0 12038.0
1345.0 12064.0
1345.0 12092.0
1345.0 12120.0
1345.0 12148.0
1345.0 12175.0
1345.0 12203.0
1345.0 12231.0
1345.0 12259.0
1345.0 12287.0
1345.0 12314.0
1345.0 12338.0
1345.0 12360.0
1345.0 12382.0
1390.0 12050.0
1390.0 12080.0
1390.0 12107.0
1390.0 12133.0
1390.0 12155.0
1390.0 12176.0
1390.0 12197.0
1390.0 12217.0
1390.0 12239.0
1390.0 12262.0
1390.0 12284.0
1390.0 12307.0
1390.0 12329.0
1390.0 12351.0
1390.0 12372.0
1390.0 12392.0
1404.0 12051.0
1404.0 12082.0
1404.0 12110.0
1404.0 12137.0
1404.0 12160.0
1404.0 12182.0
1404.0 12204.0
1404.0 12226.0
1404.0 12249.0
1404.0 12273.0
1404.0 12296.0
1404.0 12318.0
1404.0 12341.0
1404.0 12362.0
1404.0 12383.0
1417.0 12041.0
1417.0 12070.0
1417.0 12101.0
1417.0 12132.0
1417.0 12164.0
1417.0 12196.0
1417.0 12230.0
1417.0 12262.0
1417.0 12293.0
1417.0 12323.0
1417.0 12348.0
1417.0 12372.0
1417.0 12394.0
1418.0 12039.0
1418.0 12066.0
1418.0 12095.0
1418.0 12124.0
1418.0 12153.0
1418.0 12182.0
1418.0 12210.0
1418.0 12238.0
1418.0 12266.0
1418.0 12294.0
1418.0 12320.0
1418.0 12344.0
1418.0 12366.0
1418.0 12387.0
1423.0 12038.0
1423.0 12064.0
1423.0 12091.0
1423.0 12119.0
1423.0 12147.0
1423.0 12175.0
1423.0 12203.0
1423.0 12231.0
1423.0 12259.0
1423.0 12287.0
1423.0 12315.0
1423.0 12339.0
1423.0 12361.0
1423.0 12383.0
1442.0 12006.0
1442.0 12010.0
1442.0 12014.0
1442.0 12017.0
1442.0 12021.0
1442.0 12024.0
1442.0 12028.0
1442.0 12031.0
1442.0 12034.0
1442.0 12038.0
1442.0 12042.0
1442.0 12046.0
1442.0 12049.0
1442.0 12053.0
1442.0 12057.0
1442.0 12060.0
1442.0 12064.0
1442.0 12068.0
1442.0 12072.0
1442.0 12076.0
1442.0 12080.0
1442.0 12084.0
1442.0 12088.0
1442.0 12092.0
1442.0 12096.0
1442.0 12100.0
1442.0 12104.0
1442.0 12108.0
1442.0 12112.0
1442.0 12116.0
1442.0 12120.0
1442.0 12124.0
1442.0 12128.0
1442.0 12132.0
1442.0 12136.0
1442.0 12140.0
1442.0 12144.0
1442.0 12148.0
1442.0 12152.0
1442.0 12156.0
1442.0 12160.0
1442.0 12164.0
1442.0 12168.0
1442.0 12172.0
1442.0 12176.0
1442.0 12180.0
1442.0 12184.0
1442.0 12188.0
1442.0 12192.0
1442.0 12196.0
1442.0 12200.0
1442.0 12204.0
1442.0 12208.0
1442.0 12212.0
1442.0 12216.0
1442.0 12220.0
1442.0 12224.0
1442.0 12228.0
1442.0 12232.0
1442.0 12236.0
1442.0 12240.0
1442.0 12244.0
1442.0 12248.0
1442.0 12252.0
1442.0 12256.0
1442.0 12260.0
1442.0 12264.0
1442.0 12268.0
1442.0 12272.0
1442.0 12276.0
1442.0 12280.0
1442.0 12284.0
1442.0 12288.0
1442.0 12292.0
1442.0 12296.0
1442.0 12300.0
1442.0 12304.0
1442.0 12308.0
1442.0 12312.0
1442.0 12316.0
1442.0 12320.0
1442.0 12324.0
1442.0 12328.0
1442.0 12332.0
1442.0 12336.0
1442.0 12340.0
1442.0 12344.0
1442.0 12348.0
1442.0 12352.0
1442.0 12356.0
1442.0 12360.0
1442.0 12364.0
1442.0 12368.0
1442.0 12372.0
1442.0 12376.0
1442.0 12380.0
1442.0 12384.0
1442.0 12388.0
1442.0 12392.0
1442.0 12396.0
