680.0 12606.0
763.0 12606.0
1442.0 12607.0
26.0 12609.0
680.0 12610.0
763.0 12610.0
1442.0 12612.0
680.0 12613.0
763.0 12614.0
26.0 12615.0
1442.0 12616.0
680.0 12617.0
763.0 12618.0
680.0 12620.0
1442.0 12620.0
26.0 12621.0
763.0 12621.0
680.0 12624.0
1442.0 12624.0
763.0 12625.0
680.0 12627.0
866.0 12627.0
26.0 12628.0
1442.0 12628.0
599.0 12629.0
763.0 12629.0
347.0 12630.0
680.0 12630.0
763.0 12632.0
1442.0 12632.0
680.0 12633.0
591.0 12635.0
860.0 12635.0
26.0 12636.0
680.0 12636.0
736.0 12636.0
763.0 12636.0
843.0 12636.0
861.0 12636.0
1442.0 12636.0
841.0 12637.0
950.0 12637.0
973.0 12637.0
1105.0 12637.0
1226.0 12637.0
456.0 12638.0
842.0 12638.0
852.0 12638.0
941.0 12638.0
949.0 12638.0
959.0 12638.0
991.0 12638.0
1068.0 12638.0
1075.0 12638.0
1088.0 12638.0
1114.0 12638.0
1118.0 12638.0
1337.0 12638.0
1340.0 12638.0
1345.0 12638.0
680.0 12639.0
714.0 12639.0
738.0 12639.0
857.0 12639.0
1012.0 12639.0
1087.0 12639.0
1135.0 12639.0
1165.0 12639.0
1204.0 12639.0
1222.0 12639.0
1254.0 12639.0
1418.0 12639.0
1423.0 12639.0
735.0 12640.0
763.0 12640.0
1001.0 12640.0
1038.0 12640.0
1156.0 12640.0
1172.0 12640.0
1251.0 12640.0
1390.0 12640.0
1417.0 12640.0
1442.0 12640.0
725.0 12641.0
866.0 12641.0
1253.0 12641.0
680.0 12642.0
880.0 12642.0
1016.0 12642.0
1404.0 12642.0
26.0 12644.0
450.0 12644.0
599.0 12644.0
763.0 12644.0
680.0 12645.0
709.0 12645.0
1442.0 12645.0
303.0 12646.0
347.0 12646.0
558.0 12646.0
159.0 12647.0
185.0 12647.0
428.0 12647.0
718.0 12647.0
14.0 12648.0
296.0 12648.0
306.0 12648.0
680.0 12648.0
763.0 12648.0
62.0 12649.0
87.0 12649.0
166.0 12649.0
434.0 12649.0
435.0 12649.0
607.0 12649.0
1442.0 12649.0
157.0 12650.0
167.0 12650.0
286.0 12650.0
580.0 12650.0
680.0 12651.0
26.0 12652.0
477.0 12652.0
632.0 12652.0
763.0 12652.0
165.0 12653.0
860.0 12653.0
591.0 12654.0
680.0 12654.0
866.0 12654.0
1442.0 12655.0
736.0 12656.0
763.0 12656.0
1105.0 12656.0
680.0 12657.0
843.0 12657.0
241.0 12658.0
861.0 12658.0
949.0 12658.0
456.0 12659.0
605.0 12659.0
852.0 12659.0
973.0 12659.0
1114.0 12659.0
1226.0 12659.0
26.0 12660.0
599.0 12660.0
680.0 12660.0
763.0 12660.0
841.0 12660.0
857.0 12660.0
991.0 12660.0
1442.0 12660.0
347.0 12661.0
714.0 12661.0
950.0 12661.0
1068.0 12661.0
1222.0 12661.0
224.0 12662.0
959.0 12662.0
1075.0 12662.0
1118.0 12662.0
1204.0 12662.0
1337.0 12662.0
1340.0 12662.0
112.0 12663.0
232.0 12663.0
680.0 12663.0
738.0 12663.0
842.0 12663.0
941.0 12663.0
1087.0 12663.0
1088.0 12663.0
1254.0 12663.0
1345.0 12663.0
763.0 12664.0
1418.0 12664.0
1423.0 12664.0
366.0 12665.0
1442.0 12665.0
680.0 12666.0
1135.0 12666.0
1417.0 12666.0
735.0 12667.0
26.0 12668.0
763.0 12668.0
680.0 12669.0
866.0 12669.0
725.0 12670.0
745.0 12670.0
1442.0 12670.0
334.0 12671.0
1012.0 12671.0
1038.0 12671.0
1165.0 12671.0
680.0 12672.0
763.0 12672.0
860.0 12672.0
1172.0 12672.0
217.0 12673.0
591.0 12673.0
1251.0 12673.0
258.0 12674.0
1390.0 12674.0
303.0 12675.0
450.0 12675.0
623.0 12675.0
680.0 12675.0
880.0 12675.0
1442.0 12675.0
26.0 12676.0
599.0 12676.0
709.0 12676.0
736.0 12676.0
763.0 12676.0
1001.0 12676.0
1156.0 12676.0
347.0 12677.0
558.0 12677.0
718.0 12677.0
296.0 12678.0
680.0 12678.0
843.0 12678.0
1105.0 12678.0
1404.0 12678.0
185.0 12679.0
227.0 12679.0
1253.0 12679.0
14.0 12680.0
428.0 12680.0
763.0 12680.0
861.0 12680.0
435.0 12681.0
456.0 12681.0
607.0 12681.0
680.0 12681.0
949.0 12681.0
1016.0 12681.0
1442.0 12681.0
62.0 12682.0
129.0 12682.0
159.0 12682.0
259.0 12682.0
286.0 12682.0
306.0 12682.0
852.0 12682.0
857.0 12682.0
166.0 12683.0
328.0 12683.0
434.0 12683.0
487.0 12683.0
866.0 12683.0
973.0 12683.0
991.0 12683.0
1114.0 12683.0
1226.0 12683.0
26.0 12684.0
157.0 12684.0
476.0 12684.0
680.0 12684.0
714.0 12684.0
763.0 12684.0
841.0 12684.0
87.0 12686.0
167.0 12686.0
679.0 12686.0
1222.0 12686.0
477.0 12687.0
680.0 12687.0
704.0 12687.0
950.0 12687.0
1068.0 12687.0
1118.0 12687.0
1204.0 12687.0
1337.0 12687.0
1340.0 12687.0
1442.0 12687.0
738.0 12688.0
763.0 12688.0
1075.0 12688.0
1087.0 12688.0
580.0 12689.0
827.0 12689.0
959.0 12689.0
445.0 12690.0
680.0 12690.0
842.0 12690.0
860.0 12690.0
1088.0 12690.0
1254.0 12690.0
1345.0 12690.0
297.0 12691.0
717.0 12691.0
1418.0 12691.0
1423.0 12691.0
26.0 12692.0
347.0 12692.0
591.0 12692.0
599.0 12692.0
763.0 12692.0
960.0 12692.0
165.0 12693.0
680.0 12693.0
941.0 12693.0
1442.0 12693.0
671.0 12694.0
839.0 12694.0
1417.0 12695.0
680.0 12696.0
736.0 12696.0
763.0 12696.0
1135.0 12696.0
735.0 12697.0
866.0 12697.0
407.0 12698.0
1084.0 12698.0
632.0 12699.0
680.0 12699.0
708.0 12699.0
843.0 12699.0
1442.0 12699.0
26.0 12700.0
763.0 12700.0
698.0 12701.0
861.0 12701.0
1105.0 12701.0
456.0 12702.0
680.0 12702.0
707.0 12702.0
981.0 12702.0
725.0 12703.0
705.0 12704.0
303.0 12705.0
605.0 12705.0
680.0 12705.0
763.0 12705.0
857.0 12705.0
949.0 12705.0
1442.0 12705.0
241.0 12706.0
450.0 12706.0
677.0 12706.0
695.0 12706.0
709.0 12706.0
599.0 12707.0
718.0 12707.0
852.0 12707.0
991.0 12707.0
26.0 12708.0
347.0 12708.0
558.0 12708.0
680.0 12708.0
841.0 12708.0
296.0 12709.0
714.0 12709.0
763.0 12709.0
973.0 12709.0
1114.0 12709.0
1226.0 12709.0
807.0 12710.0
860.0 12710.0
185.0 12711.0
428.0 12711.0
680.0 12711.0
1251.0 12711.0
1442.0 12711.0
14.0 12712.0
591.0 12712.0
866.0 12712.0
1012.0 12712.0
1038.0 12712.0
1222.0 12712.0
306.0 12713.0
435.0 12713.0
607.0 12713.0
687.0 12713.0
1165.0 12713.0
62.0 12714.0
166.0 12714.0
434.0 12714.0
680.0 12714.0
801.0 12714.0
950.0 12714.0
1068.0 12714.0
1204.0 12714.0
1337.0 12714.0
1340.0 12714.0
159.0 12715.0
286.0 12715.0
738.0 12715.0
763.0 12715.0
880.0 12715.0
1118.0 12715.0
26.0 12716.0
942.0 12716.0
959.0 12716.0
157.0 12717.0
547.0 12717.0
680.0 12717.0
736.0 12717.0
1075.0 12717.0
1087.0 12717.0
1254.0 12717.0
1442.0 12717.0
1345.0 12718.0
426.0 12719.0
1418.0 12719.0
224.0 12720.0
477.0 12720.0
680.0 12720.0
842.0 12720.0
1088.0 12720.0
1423.0 12720.0
763.0 12721.0
843.0 12721.0
167.0 12722.0
87.0 12723.0
680.0 12723.0
1417.0 12723.0
1442.0 12723.0
837.0 12724.0
941.0 12724.0
26.0 12725.0
347.0 12725.0
599.0 12725.0
580.0 12726.0
680.0 12726.0
861.0 12726.0
1105.0 12726.0
456.0 12727.0
763.0 12727.0
1135.0 12727.0
866.0 12728.0
680.0 12729.0
949.0 12729.0
1442.0 12729.0
857.0 12731.0
680.0 12732.0
860.0 12732.0
763.0 12733.0
991.0 12733.0
165.0 12734.0
852.0 12734.0
1114.0 12734.0
26.0 12735.0
303.0 12735.0
680.0 12735.0
973.0 12735.0
1226.0 12735.0
1442.0 12735.0
591.0 12736.0
714.0 12736.0
841.0 12736.0
680.0 12738.0
709.0 12738.0
763.0 12739.0
1222.0 12739.0
450.0 12741.0
680.0 12741.0
1204.0 12741.0
1337.0 12741.0
1340.0 12741.0
296.0 12742.0
558.0 12742.0
718.0 12742.0
738.0 12742.0
950.0 12742.0
1068.0 12742.0
1442.0 12743.0
347.0 12744.0
428.0 12744.0
680.0 12744.0
736.0 12744.0
599.0 12745.0
763.0 12745.0
866.0 12746.0
959.0 12746.0
680.0 12747.0
1087.0 12747.0
1118.0 12747.0
1254.0 12747.0
1345.0 12747.0
1075.0 12748.0
1418.0 12748.0
185.0 12749.0
680.0 12750.0
843.0 12750.0
763.0 12751.0
1423.0 12751.0
1442.0 12751.0
680.0 12753.0
842.0 12753.0
1088.0 12753.0
1105.0 12753.0
456.0 12756.0
680.0 12756.0
860.0 12756.0
861.0 12756.0
1417.0 12756.0
763.0 12757.0
941.0 12757.0
949.0 12757.0
680.0 12759.0
857.0 12759.0
1442.0 12759.0
591.0 12762.0
680.0 12762.0
763.0 12763.0
1135.0 12763.0
991.0 12764.0
680.0 12765.0
852.0 12765.0
866.0 12765.0
973.0 12766.0
1226.0 12766.0
1114.0 12767.0
1442.0 12767.0
680.0 12768.0
714.0 12768.0
763.0 12769.0
841.0 12769.0
347.0 12771.0
680.0 12772.0
736.0 12772.0
1222.0 12772.0
599.0 12773.0
1340.0 12773.0
1204.0 12774.0
1337.0 12774.0
738.0 12775.0
763.0 12775.0
1442.0 12775.0
680.0 12776.0
680.0 12780.0
763.0 12781.0
680.0 12783.0
1068.0 12783.0
1442.0 12783.0
843.0 12784.0
860.0 12785.0
1345.0 12786.0
680.0 12787.0
866.0 12787.0
950.0 12788.0
763.0 12789.0
959.0 12789.0
1105.0 12789.0
1418.0 12789.0
1087.0 12790.0
680.0 12791.0
680.0 12794.0
591.0 12795.0
456.0 12796.0
763.0 12797.0
680.0 12798.0
861.0 12801.0
680.0 12802.0
763.0 12805.0
680.0 12806.0
680.0 12810.0
763.0 12813.0
680.0 12814.0
680.0 12818.0
763.0 12821.0
680.0 12822.0
680.0 12826.0
763.0 12829.0
680.0 12830.0
680.0 12834.0
763.0 12837.0
680.0 12838.0
736.0 12841.0
680.0 12842.0
860.0 12843.0
763.0 12845.0
680.0 12846.0
347.0 12849.0
680.0 12850.0
599.0 12852.0
866.0 12852.0
763.0 12853.0
591.0 12854.0
680.0 12854.0
680.0 12858.0
763.0 12861.0
680.0 12862.0
680.0 12866.0
763.0 12869.0
680.0 12870.0
1442.0 12872.0
680.0 12874.0
763.0 12877.0
680.0 12878.0
1442.0 12878.0
680.0 12882.0
763.0 12883.0
1442.0 12885.0
680.0 12886.0
843.0 12886.0
861.0 12888.0
866.0 12888.0
456.0 12889.0
763.0 12889.0
680.0 12890.0
841.0 12890.0
1442.0 12892.0
680.0 12894.0
763.0 12895.0
860.0 12895.0
680.0 12898.0
736.0 12898.0
1442.0 12900.0
347.0 12901.0
763.0 12901.0
591.0 12902.0
680.0 12902.0
599.0 12905.0
1105.0 12905.0
680.0 12906.0
763.0 12907.0
1442.0 12908.0
680.0 12910.0
763.0 12913.0
866.0 12913.0
680.0 12914.0
973.0 12914.0
1226.0 12914.0
1442.0 12914.0
991.0 12915.0
714.0 12916.0
1337.0 12917.0
1345.0 12917.0
1423.0 12917.0
680.0 12918.0
1254.0 12918.0
763.0 12919.0
857.0 12919.0
950.0 12919.0
1114.0 12919.0
1340.0 12919.0
1418.0 12919.0
738.0 12920.0
852.0 12920.0
949.0 12920.0
959.0 12920.0
1118.0 12920.0
1204.0 12920.0
1222.0 12920.0
1442.0 12920.0
941.0 12921.0
1068.0 12921.0
680.0 12922.0
1075.0 12922.0
1135.0 12924.0
763.0 12925.0
1417.0 12925.0
680.0 12926.0
842.0 12926.0
1087.0 12926.0
1088.0 12926.0
1442.0 12926.0
680.0 12930.0
763.0 12931.0
860.0 12931.0
1442.0 12932.0
680.0 12934.0
843.0 12934.0
763.0 12936.0
866.0 12936.0
456.0 12937.0
680.0 12938.0
1442.0 12938.0
591.0 12939.0
736.0 12940.0
861.0 12940.0
763.0 12941.0
680.0 12942.0
841.0 12943.0
347.0 12944.0
1105.0 12944.0
1442.0 12944.0
599.0 12945.0
680.0 12946.0
763.0 12946.0
680.0 12950.0
763.0 12950.0
1442.0 12950.0
680.0 12954.0
763.0 12954.0
1442.0 12954.0
991.0 12955.0
1226.0 12955.0
735.0 12956.0
866.0 12956.0
714.0 12957.0
725.0 12957.0
1345.0 12957.0
680.0 12958.0
763.0 12958.0
973.0 12958.0
1337.0 12958.0
1423.0 12958.0
1012.0 12959.0
1165.0 12959.0
1172.0 12959.0
1442.0 12959.0
857.0 12960.0
1038.0 12960.0
1340.0 12960.0
738.0 12961.0
860.0 12961.0
949.0 12961.0
950.0 12961.0
1114.0 12961.0
1156.0 12961.0
1251.0 12961.0
1254.0 12961.0
1390.0 12961.0
1418.0 12961.0
680.0 12962.0
763.0 12962.0
852.0 12962.0
880.0 12962.0
1001.0 12962.0
1068.0 12962.0
959.0 12963.0
1204.0 12963.0
1222.0 12963.0
1253.0 12963.0
1118.0 12964.0
1404.0 12964.0
1442.0 12964.0
941.0 12965.0
1016.0 12965.0
1075.0 12965.0
591.0 12966.0
680.0 12966.0
763.0 12966.0
843.0 12967.0
456.0 12968.0
1135.0 12968.0
1417.0 12968.0
1442.0 12968.0
736.0 12969.0
1087.0 12969.0
1088.0 12969.0
680.0 12970.0
763.0 12970.0
842.0 12970.0
861.0 12972.0
866.0 12972.0
1442.0 12972.0
1105.0 12973.0
347.0 12974.0
599.0 12974.0
680.0 12974.0
763.0 12974.0
1442.0 12976.0
841.0 12977.0
680.0 12978.0
763.0 12978.0
1442.0 12980.0
680.0 12982.0
763.0 12982.0
735.0 12983.0
991.0 12983.0
1226.0 12983.0
725.0 12984.0
1442.0 12984.0
680.0 12986.0
714.0 12986.0
763.0 12986.0
860.0 12986.0
866.0 12987.0
973.0 12987.0
1337.0 12987.0
1345.0 12987.0
857.0 12988.0
1012.0 12988.0
1340.0 12988.0
1423.0 12988.0
1442.0 12988.0
1038.0 12989.0
1165.0 12989.0
1172.0 12989.0
1251.0 12989.0
1390.0 12989.0
680.0 12990.0
763.0 12990.0
852.0 12990.0
949.0 12990.0
950.0 12990.0
591.0 12991.0
880.0 12991.0
1068.0 12991.0
1114.0 12991.0
1156.0 12991.0
1254.0 12991.0
738.0 12992.0
1001.0 12992.0
1222.0 12992.0
1418.0 12992.0
1442.0 12992.0
1204.0 12993.0
680.0 12994.0
763.0 12994.0
959.0 12994.0
1404.0 12994.0
1075.0 12995.0
1118.0 12995.0
1253.0 12995.0
456.0 12996.0
843.0 12996.0
1442.0 12996.0
736.0 12997.0
941.0 12997.0
1016.0 12997.0
1105.0 12997.0
1087.0 12998.0
1088.0 12998.0
1135.0 12999.0
1417.0 13000.0
