303.0 13530.0
347.0 13238.0
347.0 13260.0
347.0 13282.0
347.0 13304.0
347.0 13324.0
347.0 13342.0
347.0 13360.0
347.0 13378.0
347.0 13397.0
347.0 13416.0
347.0 13435.0
347.0 13453.0
347.0 13471.0
347.0 13489.0
347.0 13507.0
347.0 13525.0
347.0 13543.0
347.0 13562.0
347.0 13583.0
407.0 13401.0
407.0 13545.0
426.0 13538.0
428.0 13547.0
434.0 13496.0
445.0 13491.0
456.0 13239.0
456.0 13261.0
456.0 13282.0
456.0 13304.0
456.0 13325.0
456.0 13343.0
456.0 13361.0
456.0 13380.0
456.0 13399.0
456.0 13418.0
456.0 13437.0
456.0 13455.0
456.0 13473.0
456.0 13491.0
456.0 13509.0
456.0 13527.0
456.0 13545.0
456.0 13565.0
456.0 13587.0
466.0 13550.0
476.0 13395.0
476.0 13485.0
478.0 13564.0
547.0 13521.0
568.0 13401.0
591.0 13238.0
591.0 13258.0
591.0 13278.0
591.0 13298.0
591.0 13318.0
591.0 13335.0
591.0 13351.0
591.0 13367.0
591.0 13384.0
591.0 13401.0
591.0 13418.0
591.0 13435.0
591.0 13452.0
591.0 13468.0
591.0 13484.0
591.0 13500.0
591.0 13516.0
591.0 13532.0
591.0 13549.0
591.0 13567.0
591.0 13586.0
599.0 13238.0
599.0 13259.0
599.0 13281.0
599.0 13302.0
599.0 13322.0
599.0 13340.0
599.0 13357.0
599.0 13374.0
599.0 13392.0
599.0 13411.0
599.0 13429.0
599.0 13448.0
599.0 13466.0
599.0 13483.0
599.0 13501.0
599.0 13518.0
599.0 13535.0
599.0 13553.0
599.0 13573.0
599.0 13594.0
612.0 13355.0
612.0 13509.0
625.0 13343.0
625.0 13476.0
625.0 13560.0
671.0 13339.0
671.0 13387.0
671.0 13441.0
671.0 13489.0
671.0 13540.0
677.0 13357.0
677.0 13419.0
677.0 13482.0
677.0 13548.0
679.0 13363.0
679.0 13420.0
679.0 13489.0
680.0 13206.0
680.0 13211.0
680.0 13214.0
680.0 13218.0
680.0 13222.0
680.0 13226.0
680.0 13230.0
680.0 13234.0
680.0 13238.0
680.0 13242.0
680.0 13246.0
680.0 13250.0
680.0 13254.0
680.0 13258.0
680.0 13262.0
680.0 13266.0
680.0 13270.0
680.0 13273.0
680.0 13277.0
680.0 13281.0
680.0 13284.0
680.0 13288.0
680.0 13292.0
680.0 13296.0
680.0 13300.0
680.0 13303.0
680.0 13307.0
680.0 13310.0
680.0 13314.0
680.0 13317.0
680.0 13320.0
680.0 13323.0
680.0 13326.0
680.0 13329.0
680.0 13332.0
680.0 13335.0
680.0 13338.0
680.0 13341.0
680.0 13344.0
680.0 13347.0
680.0 13350.0
680.0 13353.0
680.0 13356.0
680.0 13359.0
680.0 13362.0
680.0 13365.0
680.0 13368.0
680.0 13371.0
680.0 13374.0
680.0 13377.0
680.0 13380.0
680.0 13383.0
680.0 13386.0
680.0 13389.0
680.0 13392.0
680.0 13395.0
680.0 13398.0
680.0 13401.0
680.0 13404.0
680.0 13407.0
680.0 13410.0
680.0 13413.0
680.0 13416.0
680.0 13419.0
680.0 13422.0
680.0 13425.0
680.0 13428.0
680.0 13431.0
680.0 13434.0
680.0 13437.0
680.0 13440.0
680.0 13443.0
680.0 13446.0
680.0 13449.0
680.0 13452.0
680.0 13455.0
680.0 13458.0
680.0 13461.0
680.0 13464.0
680.0 13467.0
680.0 13470.0
680.0 13473.0
680.0 13476.0
680.0 13479.0
680.0 13482.0
680.0 13485.0
680.0 13488.0
680.0 13491.0
680.0 13494.0
680.0 13497.0
680.0 13500.0
680.0 13503.0
680.0 13506.0
680.0 13509.0
680.0 13512.0
680.0 13515.0
680.0 13518.0
680.0 13521.0
680.0 13524.0
680.0 13527.0
680.0 13530.0
680.0 13533.0
680.0 13536.0
680.0 13539.0
680.0 13542.0
680.0 13545.0
680.0 13548.0
680.0 13552.0
680.0 13556.0
680.0 13560.0
680.0 13563.0
680.0 13567.0
680.0 13571.0
680.0 13574.0
680.0 13578.0
680.0 13582.0
680.0 13586.0
680.0 13590.0
680.0 13594.0
695.0 13384.0
695.0 13492.0
698.0 13371.0
698.0 13445.0
698.0 13514.0
704.0 13365.0
704.0 13452.0
704.0 13512.0
705.0 13401.0
705.0 13496.0
707.0 13497.0
714.0 13240.0
714.0 13261.0
714.0 13280.0
714.0 13300.0
714.0 13320.0
714.0 13338.0
714.0 13356.0
714.0 13373.0
714.0 13390.0
714.0 13407.0
714.0 13425.0
714.0 13442.0
714.0 13459.0
714.0 13476.0
714.0 13492.0
714.0 13509.0
714.0 13526.0
714.0 13543.0
714.0 13560.0
714.0 13579.0
714.0 13598.0
717.0 13364.0
717.0 13426.0
717.0 13490.0
717.0 13549.0
719.0 13378.0
719.0 13495.0
719.0 13564.0
725.0 13238.0
725.0 13255.0
725.0 13271.0
725.0 13289.0
725.0 13307.0
725.0 13324.0
725.0 13341.0
725.0 13358.0
725.0 13376.0
725.0 13394.0
725.0 13412.0
725.0 13430.0
725.0 13448.0
725.0 13466.0
725.0 13483.0
725.0 13501.0
725.0 13518.0
725.0 13535.0
725.0 13551.0
725.0 13568.0
725.0 13584.0
726.0 13550.0
729.0 13585.0
734.0 13556.0
735.0 13236.0
735.0 13253.0
735.0 13270.0
735.0 13288.0
735.0 13307.0
735.0 13325.0
735.0 13343.0
735.0 13361.0
735.0 13379.0
735.0 13397.0
735.0 13415.0
735.0 13433.0
735.0 13451.0
735.0 13468.0
735.0 13486.0
735.0 13503.0
735.0 13521.0
735.0 13539.0
735.0 13556.0
735.0 13572.0
735.0 13589.0
736.0 13237.0
736.0 13258.0
736.0 13279.0
736.0 13300.0
736.0 13320.0
736.0 13338.0
736.0 13356.0
736.0 13374.0
736.0 13392.0
736.0 13410.0
736.0 13428.0
736.0 13446.0
736.0 13464.0
736.0 13482.0
736.0 13500.0
736.0 13517.0
736.0 13535.0
736.0 13552.0
736.0 13573.0
736.0 13593.0
738.0 13241.0
738.0 13264.0
738.0 13285.0
738.0 13307.0
738.0 13327.0
738.0 13345.0
738.0 13364.0
738.0 13383.0
738.0 13402.0
738.0 13421.0
738.0 13440.0
738.0 13459.0
738.0 13477.0
738.0 13495.0
738.0 13513.0
738.0 13532.0
738.0 13550.0
738.0 13570.0
738.0 13591.0
744.0 13571.0
763.0 13206.0
763.0 13210.0
763.0 13214.0
763.0 13217.0
763.0 13221.0
763.0 13224.0
763.0 13228.0
763.0 13231.0
763.0 13234.0
763.0 13237.0
763.0 13240.0
763.0 13243.0
763.0 13246.0
763.0 13249.0
763.0 13252.0
763.0 13255.0
763.0 13258.0
763.0 13261.0
763.0 13265.0
763.0 13268.0
763.0 13271.0
763.0 13274.0
763.0 13277.0
763.0 13281.0
763.0 13284.0
763.0 13287.0
763.0 13290.0
763.0 13293.0
763.0 13297.0
763.0 13300.0
763.0 13303.0
763.0 13306.0
763.0 13309.0
763.0 13313.0
763.0 13316.0
763.0 13319.0
763.0 13322.0
763.0 13325.0
763.0 13329.0
763.0 13332.0
763.0 13335.0
763.0 13338.0
763.0 13341.0
763.0 13344.0
763.0 13347.0
763.0 13350.0
763.0 13353.0
763.0 13357.0
763.0 13360.0
763.0 13363.0
763.0 13367.0
763.0 13370.0
763.0 13373.0
763.0 13377.0
763.0 13380.0
763.0 13383.0
763.0 13387.0
763.0 13390.0
763.0 13393.0
763.0 13397.0
763.0 13400.0
763.0 13403.0
763.0 13407.0
763.0 13410.0
763.0 13413.0
763.0 13417.0
763.0 13420.0
763.0 13423.0
763.0 13427.0
763.0 13430.0
763.0 13433.0
763.0 13437.0
763.0 13440.0
763.0 13443.0
763.0 13446.0
763.0 13449.0
763.0 13453.0
763.0 13456.0
763.0 13459.0
763.0 13462.0
763.0 13465.0
763.0 13469.0
763.0 13472.0
763.0 13475.0
763.0 13478.0
763.0 13481.0
763.0 13485.0
763.0 13488.0
763.0 13491.0
763.0 13494.0
763.0 13497.0
763.0 13501.0
763.0 13504.0
763.0 13507.0
763.0 13510.0
763.0 13513.0
763.0 13517.0
763.0 13520.0
763.0 13523.0
763.0 13526.0
763.0 13529.0
763.0 13533.0
763.0 13536.0
763.0 13539.0
763.0 13542.0
763.0 13545.0
763.0 13549.0
763.0 13552.0
763.0 13555.0
763.0 13558.0
763.0 13561.0
763.0 13565.0
763.0 13568.0
763.0 13571.0
763.0 13574.0
763.0 13577.0
763.0 13581.0
763.0 13584.0
763.0 13587.0
763.0 13590.0
763.0 13594.0
763.0 13597.0
801.0 13352.0
801.0 13415.0
801.0 13484.0
801.0 13544.0
805.0 13495.0
819.0 13588.0
827.0 13341.0
827.0 13391.0
827.0 13440.0
827.0 13490.0
827.0 13539.0
832.0 13523.0
837.0 13380.0
837.0 13461.0
837.0 13545.0
839.0 13394.0
839.0 13489.0
841.0 13239.0
841.0 13263.0
841.0 13287.0
841.0 13311.0
841.0 13332.0
841.0 13353.0
841.0 13374.0
841.0 13395.0
841.0 13416.0
841.0 13437.0
841.0 13458.0
841.0 13479.0
841.0 13500.0
841.0 13520.0
841.0 13540.0
841.0 13564.0
841.0 13587.0
842.0 13241.0
842.0 13265.0
842.0 13287.0
842.0 13311.0
842.0 13332.0
842.0 13352.0
842.0 13372.0
842.0 13392.0
842.0 13412.0
842.0 13432.0
842.0 13452.0
842.0 13473.0
842.0 13493.0
842.0 13513.0
842.0 13533.0
842.0 13553.0
842.0 13575.0
842.0 13597.0
843.0 13239.0
843.0 13261.0
843.0 13284.0
843.0 13306.0
843.0 13327.0
843.0 13346.0
843.0 13365.0
843.0 13384.0
843.0 13404.0
843.0 13424.0
843.0 13443.0
843.0 13462.0
843.0 13481.0
843.0 13500.0
843.0 13518.0
843.0 13536.0
843.0 13556.0
843.0 13578.0
847.0 13397.0
847.0 13487.0
850.0 13552.0
851.0 13271.0
851.0 13331.0
851.0 13386.0
851.0 13443.0
851.0 13495.0
851.0 13542.0
851.0 13590.0
852.0 13239.0
852.0 13260.0
852.0 13279.0
852.0 13299.0
852.0 13319.0
852.0 13336.0
852.0 13353.0
852.0 13370.0
852.0 13387.0
852.0 13405.0
852.0 13423.0
852.0 13441.0
852.0 13458.0
852.0 13475.0
852.0 13492.0
852.0 13510.0
852.0 13527.0
852.0 13544.0
852.0 13562.0
852.0 13581.0
857.0 13240.0
857.0 13260.0
857.0 13279.0
857.0 13298.0
857.0 13317.0
857.0 13334.0
857.0 13351.0
857.0 13367.0
857.0 13383.0
857.0 13399.0
857.0 13414.0
857.0 13430.0
857.0 13447.0
857.0 13464.0
857.0 13480.0
857.0 13495.0
857.0 13511.0
857.0 13528.0
857.0 13544.0
857.0 13561.0
857.0 13578.0
857.0 13596.0
860.0 13236.0
860.0 13255.0
860.0 13275.0
860.0 13294.0
860.0 13313.0
860.0 13330.0
860.0 13346.0
860.0 13362.0
860.0 13378.0
860.0 13395.0
860.0 13412.0
860.0 13429.0
860.0 13446.0
860.0 13463.0
860.0 13479.0
860.0 13495.0
860.0 13511.0
860.0 13527.0
860.0 13543.0
860.0 13560.0
860.0 13578.0
860.0 13597.0
861.0 13238.0
861.0 13260.0
861.0 13283.0
861.0 13306.0
861.0 13327.0
861.0 13346.0
861.0 13365.0
861.0 13384.0
861.0 13403.0
861.0 13423.0
861.0 13443.0
861.0 13463.0
861.0 13482.0
861.0 13500.0
861.0 13518.0
861.0 13537.0
861.0 13557.0
861.0 13579.0
863.0 13509.0
864.0 13591.0
866.0 13228.0
866.0 13241.0
866.0 13253.0
866.0 13264.0
866.0 13276.0
866.0 13287.0
866.0 13299.0
866.0 13311.0
866.0 13323.0
866.0 13334.0
866.0 13345.0
866.0 13356.0
866.0 13367.0
866.0 13378.0
866.0 13389.0
866.0 13400.0
866.0 13411.0
866.0 13422.0
866.0 13433.0
866.0 13444.0
866.0 13455.0
866.0 13466.0
866.0 13477.0
866.0 13488.0
866.0 13499.0
866.0 13510.0
866.0 13521.0
866.0 13532.0
866.0 13543.0
866.0 13554.0
866.0 13566.0
866.0 13577.0
866.0 13589.0
870.0 13356.0
870.0 13594.0
880.0 13239.0
880.0 13257.0
880.0 13275.0
880.0 13293.0
880.0 13312.0
880.0 13330.0
880.0 13348.0
880.0 13366.0
880.0 13385.0
880.0 13404.0
880.0 13423.0
880.0 13442.0
880.0 13460.0
880.0 13478.0
880.0 13496.0
880.0 13514.0
880.0 13532.0
880.0 13549.0
880.0 13566.0
880.0 13583.0
880.0 13600.0
894.0 13352.0
941.0 13239.0
941.0 13263.0
941.0 13285.0
941.0 13308.0
941.0 13329.0
941.0 13348.0
941.0 13367.0
941.0 13386.0
941.0 13406.0
941.0 13426.0
941.0 13445.0
941.0 13465.0
941.0 13484.0
941.0 13504.0
941.0 13524.0
941.0 13543.0
941.0 13564.0
941.0 13585.0
942.0 13377.0
942.0 13460.0
942.0 13526.0
949.0 13239.0
949.0 13260.0
949.0 13279.0
949.0 13298.0
949.0 13317.0
949.0 13334.0
949.0 13351.0
949.0 13368.0
949.0 13385.0
949.0 13401.0
949.0 13417.0
949.0 13434.0
949.0 13451.0
949.0 13468.0
949.0 13485.0
949.0 13501.0
949.0 13518.0
949.0 13535.0
949.0 13551.0
949.0 13569.0
949.0 13588.0
950.0 13238.0
950.0 13261.0
950.0 13283.0
950.0 13306.0
950.0 13326.0
950.0 13345.0
950.0 13363.0
950.0 13381.0
950.0 13399.0
950.0 13416.0
950.0 13434.0
950.0 13453.0
950.0 13472.0
950.0 13490.0
950.0 13507.0
950.0 13526.0
950.0 13543.0
950.0 13563.0
950.0 13584.0
951.0 13491.0
951.0 13596.0
953.0 13493.0
953.0 13567.0
959.0 13239.0
959.0 13263.0
959.0 13286.0
959.0 13309.0
959.0 13330.0
959.0 13349.0
959.0 13368.0
959.0 13386.0
959.0 13405.0
959.0 13424.0
959.0 13443.0
959.0 13462.0
959.0 13481.0
959.0 13500.0
959.0 13519.0
959.0 13538.0
959.0 13557.0
959.0 13578.0
959.0 13600.0
960.0 13367.0
960.0 13439.0
960.0 13509.0
965.0 13579.0
973.0 13238.0
973.0 13258.0
973.0 13278.0
973.0 13298.0
973.0 13318.0
973.0 13336.0
973.0 13354.0
973.0 13371.0
973.0 13388.0
973.0 13405.0
973.0 13422.0
973.0 13439.0
973.0 13456.0
973.0 13473.0
973.0 13490.0
973.0 13507.0
973.0 13524.0
973.0 13541.0
973.0 13558.0
973.0 13577.0
973.0 13598.0
975.0 13402.0
975.0 13530.0
981.0 13371.0
981.0 13449.0
981.0 13509.0
985.0 13317.0
985.0 13385.0
985.0 13461.0
985.0 13545.0
991.0 13239.0
991.0 13260.0
991.0 13279.0
991.0 13299.0
991.0 13318.0
991.0 13335.0
991.0 13352.0
991.0 13369.0
991.0 13386.0
991.0 13402.0
991.0 13419.0
991.0 13436.0
991.0 13453.0
991.0 13470.0
991.0 13487.0
991.0 13504.0
991.0 13521.0
991.0 13538.0
991.0 13554.0
991.0 13573.0
991.0 13592.0
998.0 13560.0
1001.0 13236.0
1001.0 13255.0
1001.0 13273.0
1001.0 13292.0
1001.0 13311.0
1001.0 13330.0
1001.0 13349.0
1001.0 13368.0
1001.0 13388.0
1001.0 13407.0
1001.0 13427.0
1001.0 13447.0
1001.0 13466.0
1001.0 13485.0
1001.0 13503.0
1001.0 13522.0
1001.0 13541.0
1001.0 13559.0
1001.0 13577.0
1001.0 13595.0
1012.0 13236.0
1012.0 13254.0
1012.0 13272.0
1012.0 13290.0
1012.0 13309.0
1012.0 13328.0
1012.0 13346.0
1012.0 13365.0
1012.0 13384.0
1012.0 13403.0
1012.0 13423.0
1012.0 13442.0
1012.0 13461.0
1012.0 13479.0
1012.0 13497.0
1012.0 13516.0
1012.0 13535.0
1012.0 13553.0
1012.0 13571.0
1012.0 13588.0
1014.0 13353.0
1016.0 13238.0
1016.0 13258.0
1016.0 13277.0
1016.0 13297.0
1016.0 13317.0
1016.0 13338.0
1016.0 13358.0
1016.0 13379.0
1016.0 13400.0
1016.0 13421.0
1016.0 13443.0
1016.0 13463.0
1016.0 13484.0
1016.0 13504.0
1016.0 13524.0
1016.0 13545.0
1016.0 13565.0
1016.0 13584.0
1018.0 13349.0
1018.0 13469.0
1018.0 13550.0
1038.0 13237.0
1038.0 13255.0
1038.0 13272.0
1038.0 13290.0
1038.0 13309.0
1038.0 13328.0
1038.0 13346.0
1038.0 13364.0
1038.0 13383.0
1038.0 13402.0
1038.0 13421.0
1038.0 13440.0
1038.0 13459.0
1038.0 13477.0
1038.0 13495.0
1038.0 13513.0
1038.0 13531.0
1038.0 13549.0
1038.0 13567.0
1038.0 13585.0
1067.0 13510.0
1068.0 13239.0
1068.0 13261.0
1068.0 13281.0
1068.0 13303.0
1068.0 13323.0
1068.0 13341.0
1068.0 13359.0
1068.0 13377.0
1068.0 13395.0
1068.0 13413.0
1068.0 13431.0
1068.0 13449.0
1068.0 13467.0
1068.0 13485.0
1068.0 13503.0
1068.0 13521.0
1068.0 13539.0
1068.0 13557.0
1068.0 13577.0
1068.0 13597.0
1075.0 13239.0
1075.0 13262.0
1075.0 13284.0
1075.0 13307.0
1075.0 13328.0
1075.0 13348.0
1075.0 13367.0
1075.0 13385.0
1075.0 13404.0
1075.0 13423.0
1075.0 13442.0
1075.0 13461.0
1075.0 13479.0
1075.0 13498.0
1075.0 13517.0
1075.0 13535.0
1075.0 13553.0
1075.0 13573.0
1075.0 13594.0
1084.0 13355.0
1084.0 13412.0
1084.0 13481.0
1084.0 13544.0
1087.0 13241.0
1087.0 13263.0
1087.0 13284.0
1087.0 13306.0
1087.0 13326.0
1087.0 13345.0
1087.0 13363.0
1087.0 13381.0
1087.0 13399.0
1087.0 13417.0
1087.0 13435.0
1087.0 13454.0
1087.0 13472.0
1087.0 13491.0
1087.0 13509.0
1087.0 13527.0
1087.0 13545.0
1087.0 13565.0
1087.0 13585.0
1088.0 13241.0
1088.0 13263.0
1088.0 13284.0
1088.0 13306.0
1088.0 13327.0
1088.0 13346.0
1088.0 13365.0
1088.0 13384.0
1088.0 13403.0
1088.0 13422.0
1088.0 13441.0
1088.0 13460.0
1088.0 13479.0
1088.0 13498.0
1088.0 13517.0
1088.0 13536.0
1088.0 13555.0
1088.0 13576.0
1088.0 13597.0
1105.0 13237.0
1105.0 13256.0
1105.0 13275.0
1105.0 13293.0
1105.0 13312.0
1105.0 13330.0
1105.0 13346.0
1105.0 13362.0
1105.0 13378.0
1105.0 13394.0
1105.0 13410.0
1105.0 13426.0
1105.0 13442.0
1105.0 13458.0
1105.0 13474.0
1105.0 13490.0
1105.0 13506.0
1105.0 13522.0
1105.0 13538.0
1105.0 13553.0
1105.0 13570.0
1105.0 13587.0
1106.0 13481.0
1114.0 13239.0
1114.0 13260.0
1114.0 13280.0
1114.0 13301.0
1114.0 13322.0
1114.0 13340.0
1114.0 13358.0
1114.0 13375.0
1114.0 13392.0
1114.0 13410.0
1114.0 13428.0
1114.0 13446.0
1114.0 13464.0
1114.0 13482.0
1114.0 13500.0
1114.0 13518.0
1114.0 13535.0
1114.0 13552.0
1114.0 13572.0
1114.0 13592.0
1115.0 13406.0
1115.0 13500.0
1115.0 13576.0
1117.0 13389.0
1117.0 13469.0
1117.0 13538.0
1118.0 13240.0
1118.0 13263.0
1118.0 13285.0
1118.0 13308.0
1118.0 13329.0
1118.0 13348.0
1118.0 13367.0
1118.0 13385.0
1118.0 13404.0
1118.0 13423.0
1118.0 13442.0
1118.0 13461.0
1118.0 13480.0
1118.0 13499.0
1118.0 13518.0
1118.0 13537.0
1118.0 13555.0
1118.0 13575.0
1118.0 13596.0
1134.0 13503.0
1135.0 13240.0
1135.0 13263.0
1135.0 13285.0
1135.0 13309.0
1135.0 13330.0
1135.0 13349.0
1135.0 13368.0
1135.0 13388.0
1135.0 13407.0
1135.0 13426.0
1135.0 13445.0
1135.0 13464.0
1135.0 13484.0
1135.0 13503.0
1135.0 13522.0
1135.0 13541.0
1135.0 13561.0
1135.0 13582.0
1148.0 13561.0
1156.0 13236.0
1156.0 13255.0
1156.0 13273.0
1156.0 13292.0
1156.0 13311.0
1156.0 13330.0
1156.0 13349.0
1156.0 13368.0
1156.0 13387.0
1156.0 13406.0
1156.0 13426.0
1156.0 13445.0
1156.0 13464.0
1156.0 13482.0
1156.0 13500.0
1156.0 13519.0
1156.0 13538.0
1156.0 13555.0
1156.0 13573.0
1156.0 13591.0
1165.0 13237.0
1165.0 13256.0
1165.0 13274.0
1165.0 13293.0
1165.0 13312.0
1165.0 13332.0
1165.0 13351.0
1165.0 13371.0
1165.0 13391.0
1165.0 13411.0
1165.0 13431.0
1165.0 13451.0
1165.0 13470.0
1165.0 13489.0
1165.0 13508.0
1165.0 13528.0
1165.0 13547.0
1165.0 13567.0
1165.0 13586.0
1172.0 13236.0
1172.0 13254.0
1172.0 13272.0
1172.0 13291.0
1172.0 13310.0
1172.0 13329.0
1172.0 13348.0
1172.0 13367.0
1172.0 13387.0
1172.0 13407.0
1172.0 13427.0
1172.0 13446.0
1172.0 13466.0
1172.0 13485.0
1172.0 13504.0
1172.0 13523.0
1172.0 13542.0
1172.0 13560.0
1172.0 13578.0
1172.0 13596.0
1174.0 13562.0
1196.0 13400.0
1196.0 13505.0
1204.0 13240.0
1204.0 13263.0
1204.0 13284.0
1204.0 13306.0
1204.0 13327.0
1204.0 13346.0
1204.0 13364.0
1204.0 13382.0
1204.0 13401.0
1204.0 13419.0
1204.0 13437.0
1204.0 13456.0
1204.0 13475.0
1204.0 13493.0
1204.0 13511.0
1204.0 13530.0
1204.0 13548.0
1204.0 13568.0
1204.0 13588.0
1205.0 13381.0
1205.0 13477.0
1205.0 13552.0
1213.0 13568.0
1222.0 13240.0
1222.0 13261.0
1222.0 13281.0
1222.0 13302.0
1222.0 13323.0
1222.0 13341.0
1222.0 13359.0
1222.0 13377.0
1222.0 13395.0
1222.0 13413.0
1222.0 13430.0
1222.0 13448.0
1222.0 13466.0
1222.0 13484.0
1222.0 13501.0
1222.0 13518.0
1222.0 13536.0
1222.0 13553.0
1222.0 13571.0
1222.0 13590.0
1223.0 13564.0
1225.0 13374.0
1225.0 13473.0
1225.0 13546.0
1226.0 13238.0
1226.0 13259.0
1226.0 13279.0
1226.0 13299.0
1226.0 13318.0
1226.0 13336.0
1226.0 13354.0
1226.0 13372.0
1226.0 13389.0
1226.0 13407.0
1226.0 13424.0
1226.0 13441.0
1226.0 13458.0
1226.0 13475.0
1226.0 13492.0
1226.0 13509.0
1226.0 13526.0
1226.0 13543.0
1226.0 13561.0
1226.0 13580.0
1226.0 13599.0
1241.0 13456.0
1241.0 13545.0
1243.0 13555.0
1244.0 13383.0
1244.0 13511.0
1251.0 13237.0
1251.0 13255.0
1251.0 13272.0
1251.0 13290.0
1251.0 13309.0
1251.0 13327.0
1251.0 13345.0
1251.0 13363.0
1251.0 13383.0
1251.0 13401.0
1251.0 13419.0
1251.0 13438.0
1251.0 13456.0
1251.0 13474.0
1251.0 13492.0
1251.0 13510.0
1251.0 13528.0
1251.0 13546.0
1251.0 13563.0
1251.0 13580.0
1251.0 13597.0
1253.0 13236.0
1253.0 13255.0
1253.0 13274.0
1253.0 13294.0
1253.0 13314.0
1253.0 13335.0
1253.0 13355.0
1253.0 13376.0
1253.0 13397.0
1253.0 13419.0
1253.0 13440.0
1253.0 13461.0
1253.0 13482.0
1253.0 13502.0
1253.0 13523.0
1253.0 13543.0
1253.0 13563.0
1253.0 13582.0
1254.0 13239.0
1254.0 13261.0
1254.0 13282.0
1254.0 13304.0
1254.0 13325.0
1254.0 13344.0
1254.0 13362.0
1254.0 13380.0
1254.0 13398.0
1254.0 13416.0
1254.0 13435.0
1254.0 13453.0
1254.0 13471.0
1254.0 13489.0
1254.0 13507.0
1254.0 13525.0
1254.0 13543.0
1254.0 13561.0
1254.0 13581.0
1257.0 13556.0
1263.0 13559.0
1337.0 13239.0
1337.0 13260.0
1337.0 13281.0
1337.0 13302.0
1337.0 13323.0
1337.0 13341.0
1337.0 13359.0
1337.0 13377.0
1337.0 13395.0
1337.0 13413.0
1337.0 13431.0
1337.0 13449.0
1337.0 13467.0
1337.0 13485.0
1337.0 13503.0
1337.0 13521.0
1337.0 13539.0
1337.0 13556.0
1337.0 13577.0
1337.0 13598.0
1340.0 13239.0
1340.0 13260.0
1340.0 13280.0
1340.0 13301.0
1340.0 13322.0
1340.0 13340.0
1340.0 13358.0
1340.0 13376.0
1340.0 13394.0
1340.0 13412.0
1340.0 13430.0
1340.0 13448.0
1340.0 13466.0
1340.0 13484.0
1340.0 13502.0
1340.0 13520.0
1340.0 13538.0
1340.0 13555.0
1340.0 13574.0
1340.0 13592.0
1345.0 13238.0
1345.0 13260.0
1345.0 13282.0
1345.0 13304.0
1345.0 13325.0
1345.0 13344.0
1345.0 13362.0
1345.0 13380.0
1345.0 13399.0
1345.0 13418.0
1345.0 13437.0
1345.0 13456.0
1345.0 13475.0
1345.0 13494.0
1345.0 13514.0
1345.0 13533.0
1345.0 13551.0
1345.0 13571.0
1345.0 13592.0
1355.0 13281.0
1355.0 13395.0
1355.0 13508.0
1355.0 13582.0
1390.0 13237.0
1390.0 13255.0
1390.0 13272.0
1390.0 13290.0
1390.0 13309.0
1390.0 13328.0
1390.0 13346.0
1390.0 13364.0
1390.0 13383.0
1390.0 13402.0
1390.0 13420.0
1390.0 13439.0
1390.0 13457.0
1390.0 13475.0
1390.0 13493.0
1390.0 13511.0
1390.0 13529.0
1390.0 13547.0
1390.0 13564.0
1390.0 13582.0
1390.0 13600.0
1404.0 13238.0
1404.0 13256.0
1404.0 13274.0
1404.0 13293.0
1404.0 13312.0
1404.0 13331.0
1404.0 13350.0
1404.0 13370.0
1404.0 13390.0
1404.0 13410.0
1404.0 13430.0
1404.0 13450.0
1404.0 13469.0
1404.0 13488.0
1404.0 13507.0
1404.0 13527.0
1404.0 13546.0
1404.0 13564.0
1404.0 13582.0
1404.0 13600.0
1417.0 13241.0
1417.0 13265.0
1417.0 13288.0
1417.0 13311.0
1417.0 13332.0
1417.0 13353.0
1417.0 13373.0
1417.0 13393.0
1417.0 13412.0
1417.0 13432.0
1417.0 13452.0
1417.0 13472.0
1417.0 13492.0
1417.0 13511.0
1417.0 13531.0
1417.0 13550.0
1417.0 13572.0
1417.0 13595.0
1418.0 13240.0
1418.0 13263.0
1418.0 13285.0
1418.0 13308.0
1418.0 13329.0
1418.0 13348.0
1418.0 13367.0
1418.0 13386.0
1418.0 13405.0
1418.0 13424.0
1418.0 13443.0
1418.0 13462.0
1418.0 13481.0
1418.0 13500.0
1418.0 13519.0
1418.0 13538.0
1418.0 13556.0
1418.0 13577.0
1418.0 13598.0
1419.0 13549.0
1423.0 13239.0
1423.0 13261.0
1423.0 13282.0
1423.0 13304.0
1423.0 13324.0
1423.0 13342.0
1423.0 13360.0
1423.0 13378.0
1423.0 13396.0
1423.0 13414.0
1423.0 13432.0
1423.0 13450.0
1423.0 13468.0
1423.0 13486.0
1423.0 13504.0
1423.0 13522.0
1423.0 13540.0
1423.0 13558.0
1423.0 13578.0
1423.0 13599.0
1433.0 13395.0
1433.0 13548.0
1434.0 13595.0
1436.0 13581.0
1439.0 13573.0
1442.0 13206.0
1442.0 13210.0
1442.0 13214.0
1442.0 13218.0
1442.0 13222.0
1442.0 13225.0
1442.0 13229.0
1442.0 13232.0
1442.0 13236.0
1442.0 13239.0
1442.0 13242.0
1442.0 13245.0
1442.0 13248.0
1442.0 13251.0
1442.0 13254.0
1442.0 13257.0
1442.0 13260.0
1442.0 13263.0
1442.0 13266.0
1442.0 13269.0
1442.0 13272.0
1442.0 13275.0
1442.0 13278.0
1442.0 13281.0
1442.0 13285.0
1442.0 13288.0
1442.0 13291.0
1442.0 13294.0
1442.0 13297.0
1442.0 13301.0
1442.0 13304.0
1442.0 13307.0
1442.0 13310.0
1442.0 13313.0
1442.0 13317.0
1442.0 13320.0
1442.0 13323.0
1442.0 13326.0
1442.0 13329.0
1442.0 13333.0
1442.0 13336.0
1442.0 13339.0
1442.0 13342.0
1442.0 13345.0
1442.0 13349.0
1442.0 13352.0
1442.0 13355.0
1442.0 13358.0
1442.0 13361.0
1442.0 13365.0
1442.0 13368.0
1442.0 13371.0
1442.0 13374.0
1442.0 13377.0
1442.0 13381.0
1442.0 13384.0
1442.0 13387.0
1442.0 13390.0
1442.0 13393.0
1442.0 13397.0
1442.0 13400.0
1442.0 13403.0
1442.0 13406.0
1442.0 13409.0
1442.0 13413.0
1442.0 13416.0
1442.0 13419.0
1442.0 13422.0
1442.0 13425.0
1442.0 13429.0
1442.0 13432.0
1442.0 13435.0
1442.0 13438.0
1442.0 13441.0
1442.0 13445.0
1442.0 13448.0
1442.0 13451.0
1442.0 13454.0
1442.0 13457.0
1442.0 13461.0
1442.0 13464.0
1442.0 13467.0
1442.0 13470.0
1442.0 13473.0
1442.0 13477.0
1442.0 13480.0
1442.0 13483.0
1442.0 13486.0
1442.0 13489.0
1442.0 13493.0
1442.0 13496.0
1442.0 13499.0
1442.0 13502.0
1442.0 13505.0
1442.0 13509.0
1442.0 13512.0
1442.0 13515.0
1442.0 13518.0
1442.0 13522.0
1442.0 13525.0
1442.0 13528.0
1442.0 13531.0
1442.0 13534.0
1442.0 13537.0
1442.0 13540.0
1442.0 13543.0
1442.0 13546.0
1442.0 13549.0
1442.0 13552.0
1442.0 13555.0
1442.0 13558.0
1442.0 13561.0
1442.0 13564.0
1442.0 13567.0
1442.0 13570.0
1442.0 13573.0
1442.0 13576.0
1442.0 13579.0
1442.0 13582.0
1442.0 13585.0
1442.0 13588.0
1442.0 13591.0
1442.0 13594.0
1442.0 13597.0
1445.0 13553.0
1446.0 13552.0
