680.0 13806.0
763.0 13806.0
1442.0 13806.0
680.0 13810.0
763.0 13810.0
1442.0 13810.0
763.0 13813.0
680.0 13814.0
1442.0 13814.0
763.0 13817.0
1442.0 13817.0
680.0 13818.0
763.0 13820.0
1442.0 13821.0
680.0 13822.0
763.0 13824.0
1442.0 13824.0
680.0 13826.0
763.0 13827.0
866.0 13827.0
1442.0 13828.0
680.0 13830.0
763.0 13830.0
1442.0 13831.0
763.0 13833.0
680.0 13834.0
1012.0 13834.0
1156.0 13834.0
1172.0 13834.0
1442.0 13834.0
735.0 13835.0
1001.0 13835.0
1038.0 13835.0
1165.0 13835.0
1251.0 13835.0
1253.0 13835.0
1390.0 13835.0
591.0 13836.0
736.0 13836.0
763.0 13836.0
860.0 13836.0
1105.0 13836.0
1404.0 13836.0
347.0 13837.0
599.0 13837.0
725.0 13837.0
861.0 13837.0
880.0 13837.0
950.0 13837.0
973.0 13837.0
1016.0 13837.0
1114.0 13837.0
1254.0 13837.0
1337.0 13837.0
1340.0 13837.0
1345.0 13837.0
1423.0 13837.0
1442.0 13837.0
680.0 13838.0
841.0 13838.0
843.0 13838.0
941.0 13838.0
949.0 13838.0
991.0 13838.0
1068.0 13838.0
1135.0 13838.0
1226.0 13838.0
1418.0 13838.0
456.0 13839.0
763.0 13839.0
842.0 13839.0
852.0 13839.0
857.0 13839.0
959.0 13839.0
1075.0 13839.0
1087.0 13839.0
1088.0 13839.0
1118.0 13839.0
1204.0 13839.0
1222.0 13839.0
714.0 13840.0
738.0 13840.0
866.0 13840.0
1417.0 13840.0
1442.0 13840.0
680.0 13842.0
763.0 13842.0
1442.0 13843.0
763.0 13845.0
680.0 13846.0
1442.0 13846.0
763.0 13848.0
1442.0 13849.0
680.0 13850.0
763.0 13851.0
1012.0 13851.0
735.0 13852.0
866.0 13852.0
1038.0 13852.0
1156.0 13852.0
1172.0 13852.0
1251.0 13852.0
1390.0 13852.0
1442.0 13852.0
725.0 13853.0
1001.0 13853.0
1165.0 13853.0
680.0 13854.0
763.0 13854.0
880.0 13854.0
1253.0 13854.0
1404.0 13854.0
860.0 13855.0
1105.0 13855.0
1442.0 13855.0
591.0 13856.0
1016.0 13856.0
736.0 13857.0
763.0 13857.0
973.0 13857.0
599.0 13858.0
680.0 13858.0
857.0 13858.0
949.0 13858.0
1114.0 13858.0
1254.0 13858.0
1337.0 13858.0
1340.0 13858.0
1423.0 13858.0
1442.0 13858.0
347.0 13859.0
852.0 13859.0
861.0 13859.0
991.0 13859.0
1068.0 13859.0
1226.0 13859.0
456.0 13860.0
714.0 13860.0
763.0 13860.0
843.0 13860.0
950.0 13860.0
1222.0 13860.0
1345.0 13860.0
1418.0 13860.0
941.0 13861.0
1087.0 13861.0
1088.0 13861.0
1135.0 13861.0
1204.0 13861.0
1442.0 13861.0
680.0 13862.0
738.0 13862.0
841.0 13862.0
1075.0 13862.0
1118.0 13862.0
763.0 13863.0
842.0 13863.0
866.0 13863.0
959.0 13863.0
1417.0 13864.0
1442.0 13864.0
680.0 13866.0
763.0 13866.0
851.0 13866.0
1442.0 13867.0
735.0 13868.0
1012.0 13868.0
725.0 13869.0
763.0 13869.0
1038.0 13869.0
1156.0 13869.0
1172.0 13869.0
1251.0 13869.0
1390.0 13869.0
680.0 13870.0
1442.0 13870.0
880.0 13871.0
1001.0 13871.0
1165.0 13871.0
763.0 13872.0
1404.0 13872.0
1253.0 13873.0
1442.0 13873.0
680.0 13874.0
860.0 13874.0
1105.0 13874.0
591.0 13875.0
763.0 13875.0
866.0 13875.0
1016.0 13875.0
857.0 13876.0
1442.0 13876.0
680.0 13878.0
736.0 13878.0
763.0 13878.0
949.0 13878.0
973.0 13878.0
1355.0 13878.0
599.0 13879.0
852.0 13879.0
991.0 13879.0
1114.0 13879.0
1226.0 13879.0
1254.0 13879.0
1337.0 13879.0
1340.0 13879.0
1442.0 13879.0
347.0 13880.0
714.0 13880.0
894.0 13880.0
1068.0 13880.0
1423.0 13880.0
456.0 13881.0
763.0 13881.0
1222.0 13881.0
680.0 13882.0
843.0 13882.0
861.0 13882.0
950.0 13882.0
1345.0 13882.0
1418.0 13882.0
1442.0 13882.0
1087.0 13883.0
1088.0 13883.0
1204.0 13883.0
738.0 13884.0
763.0 13884.0
1014.0 13884.0
1075.0 13884.0
1118.0 13884.0
1135.0 13884.0
735.0 13885.0
941.0 13885.0
1012.0 13885.0
1390.0 13885.0
1442.0 13885.0
625.0 13886.0
680.0 13886.0
725.0 13886.0
841.0 13886.0
866.0 13886.0
959.0 13886.0
985.0 13886.0
1038.0 13886.0
1156.0 13886.0
1251.0 13886.0
763.0 13887.0
842.0 13887.0
870.0 13887.0
1172.0 13887.0
880.0 13888.0
1018.0 13888.0
1165.0 13888.0
1417.0 13888.0
1442.0 13888.0
1001.0 13889.0
680.0 13890.0
763.0 13890.0
1404.0 13890.0
951.0 13891.0
1442.0 13891.0
612.0 13892.0
726.0 13892.0
1105.0 13892.0
1134.0 13892.0
1225.0 13892.0
1253.0 13892.0
763.0 13893.0
860.0 13893.0
680.0 13894.0
857.0 13894.0
1016.0 13894.0
1115.0 13894.0
1442.0 13894.0
591.0 13895.0
1133.0 13895.0
763.0 13896.0
889.0 13896.0
949.0 13897.0
1442.0 13897.0
680.0 13898.0
852.0 13898.0
866.0 13898.0
973.0 13898.0
1226.0 13898.0
1257.0 13898.0
763.0 13899.0
991.0 13899.0
599.0 13900.0
714.0 13900.0
736.0 13900.0
1114.0 13900.0
1254.0 13900.0
1337.0 13900.0
1340.0 13900.0
1442.0 13900.0
347.0 13901.0
719.0 13901.0
735.0 13901.0
1068.0 13901.0
1222.0 13901.0
1423.0 13901.0
456.0 13902.0
680.0 13902.0
725.0 13902.0
763.0 13902.0
1012.0 13902.0
1390.0 13902.0
1038.0 13903.0
1156.0 13903.0
1251.0 13903.0
1442.0 13903.0
1446.0 13903.0
861.0 13904.0
1172.0 13904.0
1345.0 13904.0
1418.0 13904.0
763.0 13905.0
843.0 13905.0
880.0 13905.0
950.0 13905.0
1087.0 13905.0
1088.0 13905.0
1204.0 13905.0
680.0 13906.0
738.0 13906.0
1075.0 13906.0
1118.0 13906.0
1135.0 13906.0
1442.0 13906.0
886.0 13907.0
1001.0 13907.0
1165.0 13907.0
1262.0 13907.0
632.0 13908.0
763.0 13908.0
1404.0 13908.0
1433.0 13908.0
819.0 13909.0
864.0 13909.0
941.0 13909.0
959.0 13909.0
965.0 13909.0
1148.0 13909.0
1241.0 13909.0
1442.0 13909.0
605.0 13910.0
680.0 13910.0
841.0 13910.0
866.0 13910.0
1022.0 13910.0
763.0 13911.0
842.0 13911.0
881.0 13911.0
893.0 13911.0
1105.0 13911.0
1253.0 13911.0
851.0 13912.0
860.0 13912.0
863.0 13912.0
1243.0 13912.0
1305.0 13912.0
1417.0 13912.0
1442.0 13912.0
857.0 13913.0
994.0 13913.0
1016.0 13913.0
1031.0 13913.0
680.0 13914.0
763.0 13914.0
591.0 13915.0
744.0 13915.0
1236.0 13915.0
1300.0 13915.0
1442.0 13915.0
949.0 13916.0
1436.0 13916.0
735.0 13917.0
763.0 13917.0
1434.0 13917.0
475.0 13918.0
680.0 13918.0
725.0 13918.0
852.0 13918.0
973.0 13918.0
1226.0 13918.0
1390.0 13918.0
1415.0 13918.0
1442.0 13918.0
466.0 13919.0
991.0 13919.0
1012.0 13919.0
1038.0 13919.0
1251.0 13919.0
599.0 13920.0
714.0 13920.0
763.0 13920.0
1156.0 13920.0
601.0 13921.0
736.0 13921.0
1172.0 13921.0
1337.0 13921.0
1340.0 13921.0
1442.0 13921.0
347.0 13922.0
680.0 13922.0
866.0 13922.0
880.0 13922.0
1068.0 13922.0
1114.0 13922.0
1222.0 13922.0
1254.0 13922.0
1423.0 13922.0
456.0 13923.0
478.0 13923.0
763.0 13923.0
989.0 13924.0
1001.0 13924.0
1174.0 13924.0
1442.0 13924.0
680.0 13926.0
763.0 13926.0
850.0 13926.0
883.0 13926.0
1087.0 13926.0
1165.0 13926.0
1404.0 13926.0
734.0 13927.0
738.0 13927.0
754.0 13927.0
762.0 13927.0
843.0 13927.0
861.0 13927.0
950.0 13927.0
1088.0 13927.0
1204.0 13927.0
1418.0 13927.0
1442.0 13927.0
1075.0 13928.0
1345.0 13928.0
241.0 13929.0
763.0 13929.0
1105.0 13929.0
1118.0 13929.0
1135.0 13929.0
1355.0 13929.0
366.0 13930.0
680.0 13930.0
1253.0 13930.0
1442.0 13930.0
589.0 13931.0
860.0 13931.0
959.0 13931.0
334.0 13932.0
763.0 13932.0
857.0 13932.0
1016.0 13932.0
1419.0 13932.0
729.0 13933.0
735.0 13933.0
842.0 13933.0
866.0 13933.0
941.0 13933.0
1442.0 13933.0
235.0 13934.0
613.0 13934.0
680.0 13934.0
841.0 13934.0
591.0 13935.0
725.0 13935.0
763.0 13935.0
949.0 13935.0
1038.0 13935.0
1390.0 13935.0
1012.0 13936.0
1251.0 13936.0
1417.0 13936.0
1442.0 13936.0
1156.0 13937.0
1226.0 13937.0
1445.0 13937.0
680.0 13938.0
763.0 13938.0
852.0 13938.0
973.0 13938.0
1172.0 13938.0
1252.0 13938.0
232.0 13939.0
880.0 13939.0
1225.0 13939.0
1442.0 13939.0
599.0 13940.0
714.0 13940.0
983.0 13940.0
991.0 13940.0
736.0 13941.0
763.0 13941.0
1001.0 13941.0
1014.0 13941.0
1254.0 13941.0
1340.0 13941.0
449.0 13942.0
615.0 13942.0
680.0 13942.0
1068.0 13942.0
1114.0 13942.0
1222.0 13942.0
1337.0 13942.0
1442.0 13942.0
347.0 13943.0
1423.0 13943.0
456.0 13944.0
763.0 13944.0
866.0 13944.0
1144.0 13944.0
1165.0 13944.0
1404.0 13944.0
894.0 13945.0
1442.0 13945.0
625.0 13946.0
680.0 13946.0
985.0 13946.0
763.0 13947.0
950.0 13947.0
1087.0 13947.0
1105.0 13947.0
843.0 13948.0
1088.0 13948.0
1204.0 13948.0
1418.0 13948.0
1442.0 13948.0
738.0 13949.0
860.0 13949.0
861.0 13949.0
1253.0 13949.0
680.0 13950.0
735.0 13950.0
763.0 13950.0
1016.0 13950.0
1075.0 13950.0
1118.0 13950.0
1345.0 13950.0
857.0 13951.0
1442.0 13951.0
725.0 13952.0
1012.0 13952.0
1038.0 13952.0
1135.0 13952.0
1251.0 13952.0
1390.0 13952.0
763.0 13953.0
591.0 13954.0
680.0 13954.0
851.0 13954.0
959.0 13954.0
1156.0 13954.0
1223.0 13954.0
1442.0 13954.0
726.0 13955.0
949.0 13955.0
763.0 13956.0
866.0 13956.0
880.0 13956.0
1172.0 13956.0
1226.0 13956.0
841.0 13957.0
842.0 13957.0
852.0 13957.0
941.0 13957.0
1442.0 13957.0
612.0 13958.0
973.0 13958.0
1001.0 13958.0
680.0 13959.0
763.0 13959.0
951.0 13959.0
714.0 13960.0
991.0 13960.0
1417.0 13960.0
1442.0 13960.0
599.0 13961.0
1254.0 13961.0
1340.0 13961.0
736.0 13962.0
763.0 13962.0
870.0 13962.0
1165.0 13962.0
1222.0 13962.0
1404.0 13962.0
680.0 13963.0
1114.0 13963.0
1337.0 13963.0
1442.0 13963.0
1068.0 13964.0
347.0 13965.0
456.0 13965.0
763.0 13965.0
1423.0 13965.0
719.0 13966.0
1105.0 13966.0
1442.0 13966.0
735.0 13967.0
763.0 13968.0
866.0 13968.0
1087.0 13968.0
1253.0 13968.0
680.0 13969.0
725.0 13969.0
860.0 13969.0
1012.0 13969.0
1016.0 13969.0
1038.0 13969.0
1251.0 13969.0
1390.0 13969.0
1442.0 13969.0
857.0 13970.0
1418.0 13970.0
763.0 13971.0
950.0 13971.0
1156.0 13971.0
1204.0 13971.0
738.0 13972.0
843.0 13972.0
1018.0 13972.0
1442.0 13972.0
861.0 13973.0
880.0 13973.0
1088.0 13973.0
1172.0 13973.0
680.0 13974.0
763.0 13974.0
1075.0 13974.0
1118.0 13974.0
1345.0 13974.0
1001.0 13975.0
1115.0 13975.0
1442.0 13975.0
591.0 13976.0
1134.0 13976.0
763.0 13977.0
889.0 13977.0
1135.0 13977.0
949.0 13978.0
1226.0 13978.0
1442.0 13978.0
680.0 13979.0
852.0 13979.0
1257.0 13979.0
763.0 13980.0
866.0 13980.0
959.0 13980.0
1165.0 13980.0
1381.0 13980.0
1404.0 13980.0
973.0 13981.0
1442.0 13981.0
714.0 13983.0
735.0 13983.0
763.0 13983.0
991.0 13983.0
680.0 13984.0
841.0 13984.0
842.0 13984.0
941.0 13984.0
1439.0 13984.0
1442.0 13984.0
599.0 13985.0
725.0 13985.0
1222.0 13985.0
1254.0 13985.0
1340.0 13985.0
736.0 13986.0
763.0 13986.0
1012.0 13986.0
1038.0 13986.0
1251.0 13986.0
1390.0 13986.0
1114.0 13987.0
1253.0 13987.0
1337.0 13987.0
1442.0 13987.0
1446.0 13987.0
1016.0 13988.0
1068.0 13988.0
1105.0 13988.0
1136.0 13988.0
1156.0 13988.0
1417.0 13988.0
456.0 13989.0
680.0 13989.0
763.0 13989.0
347.0 13990.0
880.0 13990.0
1172.0 13990.0
1243.0 13990.0
1423.0 13990.0
1442.0 13990.0
860.0 13991.0
763.0 13992.0
857.0 13992.0
866.0 13992.0
1355.0 13992.0
1001.0 13993.0
1087.0 13993.0
1442.0 13993.0
680.0 13994.0
1174.0 13994.0
763.0 13995.0
1148.0 13995.0
1241.0 13995.0
1271.0 13995.0
1418.0 13996.0
1442.0 13996.0
738.0 13997.0
843.0 13997.0
950.0 13997.0
1204.0 13997.0
1262.0 13997.0
591.0 13998.0
763.0 13998.0
1165.0 13998.0
1404.0 13998.0
680.0 13999.0
735.0 13999.0
861.0 13999.0
1088.0 13999.0
1442.0 13999.0
1075.0 14000.0
1345.0 14000.0
1388.0 14000.0
725.0 14001.0
763.0 14001.0
851.0 14001.0
949.0 14001.0
1118.0 14001.0
1226.0 14001.0
852.0 14002.0
1251.0 14002.0
1390.0 14002.0
1442.0 14002.0
1012.0 14003.0
1038.0 14003.0
680.0 14004.0
763.0 14004.0
866.0 14004.0
973.0 14004.0
1135.0 14005.0
1156.0 14005.0
1442.0 14005.0
714.0 14006.0
880.0 14006.0
959.0 14006.0
1253.0 14006.0
1263.0 14006.0
466.0 14007.0
763.0 14007.0
991.0 14007.0
1016.0 14007.0
1172.0 14007.0
1254.0 14008.0
1340.0 14008.0
1442.0 14008.0
680.0 14009.0
744.0 14009.0
1105.0 14009.0
478.0 14010.0
736.0 14010.0
763.0 14010.0
1001.0 14010.0
1114.0 14010.0
1222.0 14010.0
475.0 14011.0
599.0 14011.0
841.0 14011.0
886.0 14011.0
1225.0 14011.0
1236.0 14011.0
1305.0 14011.0
1337.0 14011.0
1442.0 14011.0
860.0 14012.0
894.0 14012.0
941.0 14012.0
985.0 14012.0
1022.0 14012.0
1068.0 14012.0
456.0 14013.0
763.0 14013.0
842.0 14013.0
857.0 14013.0
680.0 14014.0
1014.0 14014.0
1442.0 14014.0
347.0 14015.0
601.0 14015.0
605.0 14015.0
735.0 14015.0
762.0 14015.0
1417.0 14015.0
1423.0 14015.0
241.0 14016.0
763.0 14016.0
850.0 14016.0
866.0 14016.0
883.0 14016.0
989.0 14016.0
1004.0 14016.0
1165.0 14016.0
1404.0 14016.0
1436.0 14016.0
725.0 14017.0
863.0 14017.0
1442.0 14017.0
726.0 14018.0
754.0 14018.0
1087.0 14018.0
1251.0 14018.0
1390.0 14018.0
615.0 14019.0
632.0 14019.0
680.0 14019.0
763.0 14019.0
1012.0 14019.0
1144.0 14019.0
1300.0 14019.0
334.0 14020.0
591.0 14020.0
734.0 14020.0
1038.0 14020.0
1442.0 14020.0
738.0 14021.0
1418.0 14021.0
763.0 14022.0
950.0 14022.0
1156.0 14022.0
1204.0 14022.0
843.0 14023.0
852.0 14023.0
864.0 14023.0
880.0 14023.0
1226.0 14023.0
1442.0 14023.0
366.0 14024.0
680.0 14024.0
949.0 14024.0
1031.0 14024.0
1172.0 14024.0
1253.0 14024.0
763.0 14025.0
1016.0 14025.0
1088.0 14025.0
1118.0 14025.0
861.0 14026.0
1075.0 14026.0
1345.0 14026.0
1442.0 14026.0
235.0 14027.0
893.0 14027.0
973.0 14027.0
1001.0 14027.0
680.0 14028.0
763.0 14028.0
866.0 14028.0
965.0 14028.0
714.0 14029.0
870.0 14029.0
994.0 14029.0
1105.0 14029.0
1442.0 14029.0
612.0 14030.0
625.0 14030.0
991.0 14030.0
1254.0 14030.0
763.0 14031.0
1340.0 14031.0
680.0 14032.0
735.0 14032.0
819.0 14032.0
959.0 14032.0
1135.0 14032.0
1252.0 14032.0
1442.0 14032.0
725.0 14033.0
860.0 14033.0
881.0 14033.0
1114.0 14033.0
1222.0 14033.0
599.0 14034.0
763.0 14034.0
857.0 14034.0
1251.0 14034.0
1404.0 14034.0
736.0 14035.0
1068.0 14035.0
1165.0 14035.0
1337.0 14035.0
1390.0 14035.0
1442.0 14035.0
680.0 14036.0
1012.0 14036.0
1434.0 14036.0
456.0 14037.0
841.0 14037.0
842.0 14037.0
1038.0 14037.0
347.0 14038.0
729.0 14038.0
763.0 14038.0
941.0 14038.0
1423.0 14038.0
1442.0 14038.0
1445.0 14039.0
680.0 14040.0
866.0 14040.0
889.0 14040.0
951.0 14040.0
1087.0 14040.0
1156.0 14040.0
591.0 14041.0
719.0 14041.0
880.0 14041.0
1172.0 14041.0
1417.0 14041.0
1442.0 14041.0
763.0 14042.0
1253.0 14043.0
680.0 14044.0
738.0 14044.0
852.0 14044.0
949.0 14044.0
950.0 14044.0
1016.0 14044.0
1226.0 14044.0
1418.0 14044.0
1442.0 14044.0
843.0 14045.0
1001.0 14045.0
1204.0 14045.0
763.0 14046.0
973.0 14046.0
1088.0 14047.0
1442.0 14047.0
680.0 14048.0
1075.0 14048.0
1105.0 14048.0
1118.0 14048.0
714.0 14049.0
763.0 14049.0
851.0 14049.0
1345.0 14049.0
735.0 14050.0
861.0 14050.0
991.0 14050.0
1442.0 14050.0
1446.0 14050.0
1254.0 14051.0
680.0 14052.0
725.0 14052.0
1251.0 14052.0
1340.0 14052.0
1355.0 14052.0
1415.0 14052.0
763.0 14053.0
857.0 14053.0
866.0 14053.0
1442.0 14053.0
860.0 14054.0
1114.0 14054.0
1222.0 14054.0
1390.0 14054.0
1404.0 14054.0
959.0 14055.0
680.0 14056.0
1012.0 14056.0
1068.0 14056.0
1135.0 14056.0
1165.0 14056.0
1337.0 14056.0
1442.0 14056.0
763.0 14057.0
1038.0 14057.0
599.0 14059.0
1423.0 14059.0
1442.0 14059.0
680.0 14060.0
736.0 14060.0
763.0 14060.0
880.0 14060.0
1156.0 14060.0
842.0 14061.0
1087.0 14061.0
1172.0 14061.0
456.0 14062.0
941.0 14062.0
1442.0 14062.0
949.0 14063.0
347.0 14064.0
591.0 14064.0
680.0 14064.0
763.0 14064.0
852.0 14064.0
1226.0 14064.0
1417.0 14064.0
1001.0 14065.0
1253.0 14065.0
1442.0 14065.0
738.0 14066.0
841.0 14066.0
866.0 14066.0
950.0 14066.0
973.0 14066.0
1016.0 14066.0
1418.0 14066.0
1105.0 14067.0
1204.0 14067.0
680.0 14068.0
763.0 14068.0
1442.0 14068.0
735.0 14069.0
1088.0 14069.0
1115.0 14069.0
714.0 14070.0
991.0 14070.0
1075.0 14070.0
1118.0 14070.0
725.0 14071.0
1251.0 14071.0
1345.0 14071.0
1442.0 14071.0
680.0 14072.0
763.0 14072.0
843.0 14072.0
857.0 14072.0
1254.0 14072.0
1340.0 14073.0
1390.0 14074.0
1404.0 14074.0
1442.0 14074.0
985.0 14075.0
1114.0 14075.0
1222.0 14075.0
1243.0 14075.0
680.0 14076.0
763.0 14076.0
1012.0 14076.0
860.0 14077.0
959.0 14077.0
1038.0 14077.0
1068.0 14077.0
1165.0 14077.0
1337.0 14077.0
1442.0 14077.0
861.0 14078.0
763.0 14079.0
866.0 14079.0
1135.0 14079.0
680.0 14080.0
880.0 14080.0
1423.0 14080.0
1442.0 14080.0
1156.0 14081.0
1172.0 14081.0
763.0 14083.0
949.0 14083.0
1087.0 14083.0
1442.0 14083.0
599.0 14084.0
680.0 14084.0
852.0 14084.0
1226.0 14084.0
842.0 14085.0
941.0 14085.0
973.0 14085.0
1105.0 14085.0
1257.0 14085.0
1433.0 14085.0
736.0 14086.0
1001.0 14086.0
1225.0 14086.0
1442.0 14086.0
735.0 14087.0
763.0 14087.0
1417.0 14087.0
591.0 14088.0
680.0 14088.0
738.0 14088.0
950.0 14088.0
1016.0 14088.0
1253.0 14088.0
1418.0 14088.0
456.0 14089.0
725.0 14089.0
1204.0 14089.0
1442.0 14089.0
347.0 14090.0
714.0 14090.0
763.0 14090.0
991.0 14090.0
857.0 14091.0
1088.0 14091.0
1251.0 14091.0
680.0 14092.0
866.0 14092.0
1075.0 14092.0
1118.0 14092.0
1442.0 14092.0
1340.0 14093.0
1345.0 14093.0
1390.0 14093.0
763.0 14094.0
1241.0 14094.0
1254.0 14094.0
1404.0 14094.0
998.0 14095.0
1442.0 14095.0
680.0 14096.0
841.0 14096.0
1012.0 14096.0
1114.0 14096.0
1222.0 14096.0
851.0 14097.0
1038.0 14097.0
1165.0 14097.0
763.0 14098.0
1068.0 14098.0
1337.0 14098.0
1442.0 14098.0
843.0 14099.0
860.0 14099.0
880.0 14099.0
680.0 14100.0
959.0 14100.0
1156.0 14101.0
1172.0 14101.0
1423.0 14101.0
1442.0 14101.0
763.0 14102.0
1135.0 14102.0
949.0 14103.0
680.0 14104.0
852.0 14104.0
866.0 14104.0
1087.0 14104.0
1105.0 14104.0
1442.0 14104.0
973.0 14105.0
1174.0 14105.0
1226.0 14105.0
763.0 14106.0
1001.0 14106.0
735.0 14107.0
861.0 14107.0
1442.0 14107.0
680.0 14108.0
725.0 14108.0
941.0 14108.0
763.0 14109.0
842.0 14109.0
599.0 14110.0
714.0 14110.0
738.0 14110.0
857.0 14110.0
991.0 14110.0
1016.0 14110.0
1442.0 14110.0
736.0 14111.0
950.0 14111.0
1253.0 14111.0
1417.0 14111.0
1418.0 14111.0
591.0 14112.0
680.0 14112.0
1204.0 14112.0
1251.0 14112.0
763.0 14113.0
1390.0 14113.0
1442.0 14113.0
1075.0 14114.0
1088.0 14114.0
1118.0 14114.0
1340.0 14114.0
456.0 14115.0
1345.0 14115.0
1404.0 14115.0
347.0 14116.0
680.0 14116.0
863.0 14116.0
866.0 14116.0
1012.0 14116.0
1254.0 14116.0
1442.0 14116.0
763.0 14117.0
1038.0 14117.0
1114.0 14117.0
1222.0 14117.0
951.0 14118.0
1165.0 14118.0
1355.0 14118.0
880.0 14119.0
1068.0 14119.0
1337.0 14119.0
680.0 14120.0
763.0 14120.0
1442.0 14120.0
1156.0 14121.0
1172.0 14121.0
860.0 14122.0
949.0 14123.0
959.0 14123.0
1423.0 14123.0
680.0 14124.0
763.0 14124.0
1105.0 14124.0
1442.0 14124.0
852.0 14125.0
843.0 14126.0
973.0 14126.0
735.0 14127.0
841.0 14127.0
1001.0 14127.0
1087.0 14127.0
1135.0 14127.0
680.0 14128.0
725.0 14128.0
763.0 14128.0
1226.0 14128.0
1442.0 14128.0
857.0 14130.0
866.0 14130.0
1442.0 14131.0
680.0 14132.0
714.0 14132.0
763.0 14132.0
991.0 14132.0
941.0 14134.0
1016.0 14134.0
1251.0 14134.0
1390.0 14134.0
738.0 14135.0
1442.0 14135.0
591.0 14136.0
599.0 14136.0
680.0 14136.0
736.0 14136.0
763.0 14136.0
842.0 14136.0
861.0 14136.0
950.0 14136.0
1253.0 14136.0
1418.0 14136.0
1204.0 14137.0
1340.0 14138.0
1012.0 14139.0
1404.0 14139.0
1417.0 14139.0
1442.0 14139.0
680.0 14140.0
763.0 14140.0
1038.0 14140.0
1075.0 14140.0
1088.0 14140.0
1118.0 14140.0
1345.0 14141.0
456.0 14142.0
880.0 14142.0
1114.0 14142.0
1222.0 14142.0
1254.0 14142.0
1442.0 14142.0
347.0 14143.0
680.0 14144.0
763.0 14144.0
866.0 14144.0
1165.0 14144.0
1068.0 14145.0
1172.0 14145.0
1337.0 14145.0
860.0 14146.0
949.0 14146.0
1105.0 14146.0
1156.0 14146.0
1442.0 14146.0
680.0 14148.0
763.0 14148.0
1423.0 14149.0
852.0 14150.0
973.0 14150.0
1442.0 14150.0
725.0 14151.0
735.0 14151.0
959.0 14151.0
680.0 14152.0
763.0 14152.0
1001.0 14153.0
1226.0 14153.0
857.0 14154.0
1442.0 14154.0
843.0 14155.0
1087.0 14155.0
1135.0 14155.0
680.0 14156.0
763.0 14156.0
714.0 14157.0
991.0 14157.0
866.0 14158.0
1442.0 14158.0
841.0 14159.0
1390.0 14159.0
680.0 14160.0
763.0 14160.0
1251.0 14160.0
591.0 14161.0
738.0 14162.0
1442.0 14162.0
736.0 14163.0
941.0 14163.0
950.0 14163.0
1016.0 14163.0
599.0 14164.0
680.0 14164.0
763.0 14164.0
1418.0 14164.0
1038.0 14165.0
1204.0 14165.0
1253.0 14165.0
1340.0 14165.0
861.0 14166.0
1012.0 14166.0
1442.0 14166.0
842.0 14167.0
1404.0 14167.0
680.0 14168.0
763.0 14168.0
880.0 14168.0
1075.0 14168.0
1088.0 14168.0
1114.0 14169.0
1118.0 14169.0
1345.0 14169.0
456.0 14170.0
860.0 14170.0
1105.0 14170.0
1222.0 14170.0
1254.0 14170.0
1417.0 14170.0
1442.0 14170.0
347.0 14171.0
680.0 14172.0
763.0 14172.0
949.0 14172.0
1068.0 14172.0
1156.0 14172.0
1165.0 14172.0
1172.0 14172.0
866.0 14173.0
1337.0 14173.0
1442.0 14174.0
680.0 14176.0
725.0 14176.0
735.0 14176.0
763.0 14176.0
852.0 14176.0
973.0 14176.0
1423.0 14177.0
1442.0 14178.0
857.0 14179.0
680.0 14180.0
763.0 14180.0
1226.0 14180.0
959.0 14181.0
1001.0 14181.0
991.0 14182.0
1442.0 14182.0
680.0 14184.0
714.0 14184.0
763.0 14184.0
843.0 14184.0
1087.0 14184.0
591.0 14186.0
1135.0 14186.0
1251.0 14186.0
1390.0 14186.0
1442.0 14186.0
866.0 14187.0
680.0 14188.0
763.0 14188.0
1442.0 14190.0
736.0 14191.0
738.0 14191.0
841.0 14191.0
599.0 14192.0
680.0 14192.0
763.0 14192.0
950.0 14192.0
1038.0 14192.0
941.0 14193.0
1340.0 14193.0
860.0 14194.0
1012.0 14194.0
1016.0 14194.0
1105.0 14194.0
1204.0 14194.0
1418.0 14194.0
1442.0 14194.0
880.0 14195.0
1253.0 14195.0
1404.0 14195.0
680.0 14196.0
763.0 14196.0
861.0 14196.0
1075.0 14197.0
1088.0 14197.0
1114.0 14197.0
456.0 14198.0
949.0 14198.0
1118.0 14198.0
1222.0 14198.0
1254.0 14198.0
1345.0 14198.0
1442.0 14198.0
347.0 14199.0
842.0 14199.0
1156.0 14199.0
1068.0 14200.0
1165.0 14200.0
1172.0 14200.0
