347.0 14443.0
347.0 14471.0
347.0 14499.0
347.0 14527.0
347.0 14555.0
347.0 14583.0
347.0 14611.0
347.0 14639.0
347.0 14667.0
347.0 14693.0
347.0 14717.0
347.0 14739.0
347.0 14760.0
347.0 14782.0
456.0 14445.0
456.0 14474.0
456.0 14502.0
456.0 14530.0
456.0 14558.0
456.0 14587.0
456.0 14617.0
456.0 14645.0
456.0 14673.0
456.0 14699.0
456.0 14723.0
456.0 14745.0
456.0 14767.0
456.0 14789.0
591.0 14442.0
591.0 14468.0
591.0 14493.0
591.0 14518.0
591.0 14544.0
591.0 14570.0
591.0 14594.0
591.0 14621.0
591.0 14646.0
591.0 14671.0
591.0 14695.0
591.0 14717.0
591.0 14736.0
591.0 14756.0
591.0 14775.0
591.0 14794.0
599.0 14444.0
599.0 14471.0
599.0 14498.0
599.0 14525.0
599.0 14555.0
599.0 14582.0
599.0 14611.0
599.0 14639.0
599.0 14666.0
599.0 14691.0
599.0 14715.0
599.0 14736.0
599.0 14757.0
599.0 14778.0
599.0 14798.0
671.0 14735.0
677.0 14764.0
679.0 14763.0
680.0 14407.0
680.0 14412.0
680.0 14416.0
680.0 14420.0
680.0 14424.0
680.0 14428.0
680.0 14432.0
680.0 14436.0
680.0 14440.0
680.0 14444.0
680.0 14448.0
680.0 14452.0
680.0 14456.0
680.0 14460.0
680.0 14464.0
680.0 14468.0
680.0 14472.0
680.0 14476.0
680.0 14480.0
680.0 14484.0
680.0 14488.0
680.0 14492.0
680.0 14496.0
680.0 14500.0
680.0 14504.0
680.0 14508.0
680.0 14512.0
680.0 14516.0
680.0 14520.0
680.0 14524.0
680.0 14528.0
680.0 14532.0
680.0 14536.0
680.0 14540.0
680.0 14544.0
680.0 14548.0
680.0 14552.0
680.0 14556.0
680.0 14560.0
680.0 14564.0
680.0 14568.0
680.0 14572.0
680.0 14576.0
680.0 14580.0
680.0 14584.0
680.0 14588.0
680.0 14592.0
680.0 14596.0
680.0 14600.0
680.0 14604.0
680.0 14608.0
680.0 14612.0
680.0 14616.0
680.0 14620.0
680.0 14624.0
680.0 14628.0
680.0 14632.0
680.0 14636.0
680.0 14640.0
680.0 14644.0
680.0 14648.0
680.0 14652.0
680.0 14656.0
680.0 14660.0
680.0 14664.0
680.0 14667.0
680.0 14671.0
680.0 14675.0
680.0 14678.0
680.0 14682.0
680.0 14686.0
680.0 14690.0
680.0 14693.0
680.0 14697.0
680.0 14700.0
680.0 14704.0
680.0 14707.0
680.0 14710.0
680.0 14713.0
680.0 14716.0
680.0 14719.0
680.0 14722.0
680.0 14725.0
680.0 14728.0
680.0 14731.0
680.0 14734.0
680.0 14737.0
680.0 14740.0
680.0 14743.0
680.0 14746.0
680.0 14749.0
680.0 14752.0
680.0 14755.0
680.0 14758.0
680.0 14761.0
680.0 14765.0
680.0 14768.0
680.0 14771.0
680.0 14774.0
680.0 14777.0
680.0 14781.0
680.0 14784.0
680.0 14787.0
680.0 14790.0
680.0 14793.0
680.0 14797.0
714.0 14445.0
714.0 14472.0
714.0 14503.0
714.0 14542.0
714.0 14583.0
714.0 14625.0
714.0 14659.0
714.0 14684.0
714.0 14707.0
714.0 14728.0
714.0 14749.0
714.0 14770.0
714.0 14790.0
725.0 14445.0
725.0 14470.0
725.0 14498.0
725.0 14530.0
725.0 14569.0
725.0 14607.0
725.0 14642.0
725.0 14671.0
725.0 14697.0
725.0 14722.0
725.0 14748.0
725.0 14772.0
725.0 14795.0
735.0 14443.0
735.0 14469.0
735.0 14499.0
735.0 14535.0
735.0 14572.0
735.0 14607.0
735.0 14643.0
735.0 14674.0
735.0 14700.0
735.0 14726.0
735.0 14751.0
735.0 14774.0
735.0 14797.0
736.0 14442.0
736.0 14470.0
736.0 14498.0
736.0 14526.0
736.0 14554.0
736.0 14582.0
736.0 14610.0
736.0 14638.0
736.0 14666.0
736.0 14692.0
736.0 14716.0
736.0 14737.0
736.0 14758.0
736.0 14780.0
736.0 14800.0
738.0 14446.0
738.0 14475.0
738.0 14512.0
738.0 14555.0
738.0 14602.0
738.0 14642.0
738.0 14674.0
738.0 14700.0
738.0 14723.0
738.0 14745.0
738.0 14767.0
738.0 14789.0
763.0 14406.0
763.0 14411.0
763.0 14414.0
763.0 14419.0
763.0 14422.0
763.0 14427.0
763.0 14430.0
763.0 14435.0
763.0 14439.0
763.0 14443.0
763.0 14447.0
763.0 14451.0
763.0 14455.0
763.0 14459.0
763.0 14463.0
763.0 14467.0
763.0 14471.0
763.0 14475.0
763.0 14479.0
763.0 14483.0
763.0 14487.0
763.0 14491.0
763.0 14495.0
763.0 14499.0
763.0 14503.0
763.0 14507.0
763.0 14511.0
763.0 14515.0
763.0 14519.0
763.0 14523.0
763.0 14527.0
763.0 14531.0
763.0 14535.0
763.0 14539.0
763.0 14543.0
763.0 14547.0
763.0 14551.0
763.0 14555.0
763.0 14559.0
763.0 14563.0
763.0 14567.0
763.0 14571.0
763.0 14575.0
763.0 14579.0
763.0 14583.0
763.0 14587.0
763.0 14591.0
763.0 14595.0
763.0 14599.0
763.0 14603.0
763.0 14607.0
763.0 14611.0
763.0 14615.0
763.0 14619.0
763.0 14623.0
763.0 14627.0
763.0 14631.0
763.0 14635.0
763.0 14639.0
763.0 14643.0
763.0 14647.0
763.0 14651.0
763.0 14655.0
763.0 14659.0
763.0 14663.0
763.0 14667.0
763.0 14671.0
763.0 14675.0
763.0 14679.0
763.0 14683.0
763.0 14687.0
763.0 14691.0
763.0 14695.0
763.0 14699.0
763.0 14703.0
763.0 14707.0
763.0 14711.0
763.0 14715.0
763.0 14719.0
763.0 14723.0
763.0 14727.0
763.0 14731.0
763.0 14735.0
763.0 14739.0
763.0 14743.0
763.0 14747.0
763.0 14751.0
763.0 14755.0
763.0 14759.0
763.0 14762.0
763.0 14766.0
763.0 14770.0
763.0 14774.0
763.0 14778.0
763.0 14781.0
763.0 14785.0
763.0 14789.0
763.0 14792.0
763.0 14796.0
801.0 14757.0
827.0 14736.0
841.0 14445.0
841.0 14477.0
841.0 14508.0
841.0 14539.0
841.0 14570.0
841.0 14601.0
841.0 14631.0
841.0 14663.0
841.0 14693.0
841.0 14719.0
841.0 14745.0
841.0 14769.0
841.0 14793.0
842.0 14444.0
842.0 14476.0
842.0 14517.0
842.0 14571.0
842.0 14627.0
842.0 14668.0
842.0 14697.0
842.0 14722.0
842.0 14746.0
842.0 14771.0
842.0 14795.0
843.0 14444.0
843.0 14473.0
843.0 14503.0
843.0 14533.0
843.0 14562.0
843.0 14592.0
843.0 14621.0
843.0 14650.0
843.0 14678.0
843.0 14704.0
843.0 14726.0
843.0 14748.0
843.0 14771.0
843.0 14793.0
852.0 14444.0
852.0 14472.0
852.0 14504.0
852.0 14543.0
852.0 14584.0
852.0 14625.0
852.0 14657.0
852.0 14683.0
852.0 14707.0
852.0 14728.0
852.0 14749.0
852.0 14770.0
852.0 14790.0
857.0 14444.0
857.0 14469.0
857.0 14498.0
857.0 14530.0
857.0 14570.0
857.0 14610.0
857.0 14643.0
857.0 14671.0
857.0 14694.0
857.0 14716.0
857.0 14735.0
857.0 14754.0
857.0 14774.0
857.0 14793.0
860.0 14441.0
860.0 14466.0
860.0 14491.0
860.0 14515.0
860.0 14541.0
860.0 14565.0
860.0 14591.0
860.0 14616.0
860.0 14641.0
860.0 14666.0
860.0 14689.0
860.0 14711.0
860.0 14730.0
860.0 14749.0
860.0 14767.0
860.0 14786.0
861.0 14444.0
861.0 14474.0
861.0 14503.0
861.0 14533.0
861.0 14563.0
861.0 14592.0
861.0 14621.0
861.0 14651.0
861.0 14680.0
861.0 14707.0
861.0 14730.0
861.0 14752.0
861.0 14775.0
861.0 14797.0
866.0 14429.0
866.0 14445.0
866.0 14460.0
866.0 14475.0
866.0 14490.0
866.0 14506.0
866.0 14522.0
866.0 14540.0
866.0 14558.0
866.0 14576.0
866.0 14593.0
866.0 14611.0
866.0 14628.0
866.0 14645.0
866.0 14661.0
866.0 14676.0
866.0 14690.0
866.0 14704.0
866.0 14717.0
866.0 14730.0
866.0 14743.0
866.0 14756.0
866.0 14769.0
866.0 14781.0
866.0 14793.0
880.0 14445.0
880.0 14473.0
880.0 14507.0
880.0 14549.0
880.0 14593.0
880.0 14636.0
880.0 14670.0
880.0 14698.0
880.0 14726.0
880.0 14753.0
880.0 14777.0
880.0 14800.0
941.0 14444.0
941.0 14475.0
941.0 14513.0
941.0 14560.0
941.0 14607.0
941.0 14648.0
941.0 14680.0
941.0 14707.0
941.0 14730.0
941.0 14753.0
941.0 14776.0
941.0 14799.0
949.0 14444.0
949.0 14471.0
949.0 14504.0
949.0 14544.0
949.0 14584.0
949.0 14625.0
949.0 14657.0
949.0 14683.0
949.0 14707.0
949.0 14727.0
949.0 14747.0
949.0 14767.0
949.0 14787.0
950.0 14443.0
950.0 14472.0
950.0 14507.0
950.0 14552.0
950.0 14596.0
950.0 14640.0
950.0 14673.0
950.0 14700.0
950.0 14723.0
950.0 14745.0
950.0 14767.0
950.0 14789.0
959.0 14444.0
959.0 14473.0
959.0 14511.0
959.0 14561.0
959.0 14613.0
959.0 14655.0
959.0 14685.0
959.0 14712.0
959.0 14735.0
959.0 14757.0
959.0 14779.0
973.0 14442.0
973.0 14468.0
973.0 14500.0
973.0 14539.0
973.0 14580.0
973.0 14620.0
973.0 14654.0
973.0 14680.0
973.0 14704.0
973.0 14726.0
973.0 14747.0
973.0 14768.0
973.0 14788.0
991.0 14443.0
991.0 14469.0
991.0 14501.0
991.0 14539.0
991.0 14577.0
991.0 14617.0
991.0 14653.0
991.0 14680.0
991.0 14704.0
991.0 14725.0
991.0 14745.0
991.0 14765.0
991.0 14784.0
1001.0 14443.0
1001.0 14472.0
1001.0 14507.0
1001.0 14548.0
1001.0 14592.0
1001.0 14634.0
1001.0 14668.0
1001.0 14696.0
1001.0 14725.0
1001.0 14752.0
1001.0 14778.0
1012.0 14442.0
1012.0 14470.0
1012.0 14505.0
1012.0 14546.0
1012.0 14590.0
1012.0 14634.0
1012.0 14668.0
1012.0 14696.0
1012.0 14723.0
1012.0 14750.0
1012.0 14775.0
1012.0 14799.0
1016.0 14445.0
1016.0 14476.0
1016.0 14517.0
1016.0 14570.0
1016.0 14625.0
1016.0 14666.0
1016.0 14697.0
1016.0 14729.0
1016.0 14761.0
1016.0 14788.0
1038.0 14442.0
1038.0 14469.0
1038.0 14502.0
1038.0 14542.0
1038.0 14583.0
1038.0 14622.0
1038.0 14656.0
1038.0 14683.0
1038.0 14710.0
1038.0 14736.0
1038.0 14762.0
1038.0 14785.0
1068.0 14443.0
1068.0 14471.0
1068.0 14507.0
1068.0 14553.0
1068.0 14599.0
1068.0 14641.0
1068.0 14674.0
1068.0 14700.0
1068.0 14722.0
1068.0 14743.0
1068.0 14764.0
1068.0 14785.0
1075.0 14444.0
1075.0 14473.0
1075.0 14509.0
1075.0 14556.0
1075.0 14604.0
1075.0 14646.0
1075.0 14678.0
1075.0 14705.0
1075.0 14728.0
1075.0 14751.0
1075.0 14773.0
1075.0 14796.0
1084.0 14757.0
1087.0 14445.0
1087.0 14475.0
1087.0 14511.0
1087.0 14559.0
1087.0 14607.0
1087.0 14648.0
1087.0 14679.0
1087.0 14705.0
1087.0 14728.0
1087.0 14751.0
1087.0 14774.0
1087.0 14796.0
1088.0 14444.0
1088.0 14474.0
1088.0 14511.0
1088.0 14559.0
1088.0 14608.0
1088.0 14651.0
1088.0 14681.0
1088.0 14708.0
1088.0 14731.0
1088.0 14753.0
1088.0 14776.0
1088.0 14798.0
1105.0 14441.0
1105.0 14465.0
1105.0 14490.0
1105.0 14521.0
1105.0 14557.0
1105.0 14593.0
1105.0 14629.0
1105.0 14659.0
1105.0 14683.0
1105.0 14705.0
1105.0 14725.0
1105.0 14744.0
1105.0 14763.0
1105.0 14782.0
1114.0 14443.0
1114.0 14470.0
1114.0 14505.0
1114.0 14546.0
1114.0 14593.0
1114.0 14633.0
1114.0 14666.0
1114.0 14691.0
1114.0 14715.0
1114.0 14736.0
1114.0 14757.0
1114.0 14778.0
1114.0 14798.0
1118.0 14444.0
1118.0 14474.0
1118.0 14513.0
1118.0 14558.0
1118.0 14605.0
1118.0 14646.0
1118.0 14678.0
1118.0 14705.0
1118.0 14728.0
1118.0 14751.0
1118.0 14773.0
1118.0 14795.0
1135.0 14446.0
1135.0 14478.0
1135.0 14520.0
1135.0 14571.0
1135.0 14623.0
1135.0 14663.0
1135.0 14692.0
1135.0 14719.0
1135.0 14743.0
1135.0 14766.0
1135.0 14790.0
1156.0 14442.0
1156.0 14471.0
1156.0 14506.0
1156.0 14547.0
1156.0 14590.0
1156.0 14632.0
1156.0 14667.0
1156.0 14695.0
1156.0 14723.0
1156.0 14750.0
1156.0 14775.0
1156.0 14799.0
1165.0 14443.0
1165.0 14472.0
1165.0 14507.0
1165.0 14552.0
1165.0 14595.0
1165.0 14636.0
1165.0 14670.0
1165.0 14698.0
1165.0 14726.0
1165.0 14754.0
1165.0 14781.0
1172.0 14441.0
1172.0 14468.0
1172.0 14501.0
1172.0 14540.0
1172.0 14583.0
1172.0 14627.0
1172.0 14663.0
1172.0 14691.0
1172.0 14719.0
1172.0 14747.0
1172.0 14772.0
1172.0 14796.0
1204.0 14445.0
1204.0 14474.0
1204.0 14511.0
1204.0 14558.0
1204.0 14606.0
1204.0 14646.0
1204.0 14677.0
1204.0 14705.0
1204.0 14728.0
1204.0 14750.0
1204.0 14772.0
1204.0 14795.0
1222.0 14444.0
1222.0 14471.0
1222.0 14506.0
1222.0 14547.0
1222.0 14590.0
1222.0 14631.0
1222.0 14666.0
1222.0 14692.0
1222.0 14716.0
1222.0 14737.0
1222.0 14758.0
1222.0 14779.0
1222.0 14799.0
1226.0 14443.0
1226.0 14469.0
1226.0 14500.0
1226.0 14539.0
1226.0 14581.0
1226.0 14624.0
1226.0 14660.0
1226.0 14686.0
1226.0 14710.0
1226.0 14731.0
1226.0 14752.0
1226.0 14773.0
1226.0 14794.0
1251.0 14442.0
1251.0 14469.0
1251.0 14503.0
1251.0 14543.0
1251.0 14585.0
1251.0 14627.0
1251.0 14662.0
1251.0 14690.0
1251.0 14717.0
1251.0 14743.0
1251.0 14768.0
1251.0 14792.0
1253.0 14443.0
1253.0 14474.0
1253.0 14514.0
1253.0 14564.0
1253.0 14613.0
1253.0 14654.0
1253.0 14687.0
1253.0 14717.0
1253.0 14748.0
1253.0 14776.0
1254.0 14443.0
1254.0 14471.0
1254.0 14507.0
1254.0 14550.0
1254.0 14594.0
1254.0 14638.0
1254.0 14671.0
1254.0 14698.0
1254.0 14722.0
1254.0 14744.0
1254.0 14766.0
1254.0 14788.0
1337.0 14442.0
1337.0 14470.0
1337.0 14505.0
1337.0 14547.0
1337.0 14592.0
1337.0 14634.0
1337.0 14668.0
1337.0 14694.0
1337.0 14718.0
1337.0 14739.0
1337.0 14760.0
1337.0 14781.0
1340.0 14442.0
1340.0 14470.0
1340.0 14505.0
1340.0 14546.0
1340.0 14589.0
1340.0 14631.0
1340.0 14665.0
1340.0 14691.0
1340.0 14715.0
1340.0 14736.0
1340.0 14757.0
1340.0 14778.0
1340.0 14798.0
1345.0 14442.0
1345.0 14470.0
1345.0 14506.0
1345.0 14550.0
1345.0 14594.0
1345.0 14635.0
1345.0 14670.0
1345.0 14696.0
1345.0 14719.0
1345.0 14740.0
1345.0 14761.0
1345.0 14782.0
1390.0 14442.0
1390.0 14470.0
1390.0 14504.0
1390.0 14545.0
1390.0 14586.0
1390.0 14628.0
1390.0 14662.0
1390.0 14690.0
1390.0 14717.0
1390.0 14744.0
1390.0 14770.0
1390.0 14794.0
1404.0 14445.0
1404.0 14474.0
1404.0 14511.0
1404.0 14554.0
1404.0 14600.0
1404.0 14641.0
1404.0 14674.0
1404.0 14702.0
1404.0 14730.0
1404.0 14758.0
1404.0 14784.0
1417.0 14446.0
1417.0 14478.0
1417.0 14522.0
1417.0 14576.0
1417.0 14630.0
1417.0 14670.0
1417.0 14700.0
1417.0 14725.0
1417.0 14749.0
1417.0 14772.0
1417.0 14796.0
1418.0 14443.0
1418.0 14472.0
1418.0 14510.0
1418.0 14555.0
1418.0 14600.0
1418.0 14642.0
1418.0 14674.0
1418.0 14701.0
1418.0 14725.0
1418.0 14747.0
1418.0 14769.0
1418.0 14791.0
1423.0 14443.0
1423.0 14471.0
1423.0 14506.0
1423.0 14550.0
1423.0 14594.0
1423.0 14638.0
1423.0 14671.0
1423.0 14697.0
1423.0 14720.0
1423.0 14741.0
1423.0 14762.0
1423.0 14783.0
1442.0 14406.0
1442.0 14411.0
1442.0 14414.0
1442.0 14419.0
1442.0 14423.0
1442.0 14427.0
1442.0 14431.0
1442.0 14435.0
1442.0 14439.0
1442.0 14443.0
1442.0 14447.0
1442.0 14451.0
1442.0 14455.0
1442.0 14459.0
1442.0 14463.0
1442.0 14467.0
1442.0 14471.0
1442.0 14475.0
1442.0 14480.0
1442.0 14485.0
1442.0 14491.0
1442.0 14496.0
1442.0 14501.0
1442.0 14506.0
1442.0 14511.0
1442.0 14517.0
1442.0 14523.0
1442.0 14529.0
1442.0 14535.0
1442.0 14541.0
1442.0 14547.0
1442.0 14553.0
1442.0 14559.0
1442.0 14565.0
1442.0 14571.0
1442.0 14577.0
1442.0 14583.0
1442.0 14589.0
1442.0 14595.0
1442.0 14601.0
1442.0 14607.0
1442.0 14613.0
1442.0 14619.0
1442.0 14625.0
1442.0 14630.0
1442.0 14635.0
1442.0 14640.0
1442.0 14645.0
1442.0 14650.0
1442.0 14655.0
1442.0 14660.0
1442.0 14664.0
1442.0 14668.0
1442.0 14672.0
1442.0 14676.0
1442.0 14680.0
1442.0 14684.0
1442.0 14688.0
1442.0 14692.0
1442.0 14696.0
1442.0 14700.0
1442.0 14704.0
1442.0 14708.0
1442.0 14712.0
1442.0 14716.0
1442.0 14720.0
1442.0 14724.0
1442.0 14728.0
1442.0 14732.0
1442.0 14736.0
1442.0 14740.0
1442.0 14744.0
1442.0 14748.0
1442.0 14752.0
1442.0 14756.0
1442.0 14760.0
1442.0 14764.0
1442.0 14767.0
1442.0 14771.0
1442.0 14775.0
1442.0 14778.0
1442.0 14782.0
1442.0 14786.0
1442.0 14790.0
1442.0 14793.0
1442.0 14797.0
