680.0 15006.0
763.0 15006.0
1442.0 15006.0
680.0 15010.0
763.0 15010.0
1442.0 15010.0
680.0 15013.0
763.0 15014.0
1442.0 15014.0
680.0 15016.0
763.0 15017.0
1442.0 15017.0
680.0 15019.0
763.0 15021.0
1442.0 15021.0
680.0 15022.0
763.0 15024.0
1442.0 15024.0
680.0 15025.0
866.0 15026.0
763.0 15028.0
1442.0 15028.0
680.0 15029.0
763.0 15031.0
1442.0 15031.0
680.0 15032.0
591.0 15033.0
860.0 15033.0
973.0 15033.0
1105.0 15033.0
1226.0 15033.0
1345.0 15033.0
736.0 15034.0
763.0 15034.0
949.0 15034.0
950.0 15034.0
991.0 15034.0
1114.0 15034.0
1254.0 15034.0
1337.0 15034.0
1340.0 15034.0
1423.0 15034.0
1442.0 15034.0
347.0 15035.0
456.0 15035.0
599.0 15035.0
680.0 15035.0
841.0 15035.0
842.0 15035.0
843.0 15035.0
852.0 15035.0
857.0 15035.0
861.0 15035.0
941.0 15035.0
959.0 15035.0
1012.0 15035.0
1068.0 15035.0
1075.0 15035.0
1087.0 15035.0
1088.0 15035.0
1118.0 15035.0
1135.0 15035.0
1156.0 15035.0
1172.0 15035.0
1204.0 15035.0
1222.0 15035.0
1417.0 15035.0
1418.0 15035.0
714.0 15036.0
735.0 15036.0
738.0 15036.0
1001.0 15036.0
1038.0 15036.0
1165.0 15036.0
1251.0 15036.0
1253.0 15036.0
1390.0 15036.0
725.0 15037.0
763.0 15037.0
1404.0 15037.0
1442.0 15037.0
680.0 15038.0
866.0 15038.0
880.0 15038.0
1016.0 15038.0
763.0 15040.0
1442.0 15040.0
680.0 15041.0
763.0 15043.0
1442.0 15043.0
680.0 15044.0
763.0 15046.0
1442.0 15046.0
680.0 15047.0
763.0 15049.0
860.0 15049.0
866.0 15049.0
1105.0 15049.0
1442.0 15049.0
591.0 15050.0
680.0 15050.0
973.0 15050.0
1226.0 15050.0
857.0 15051.0
949.0 15051.0
991.0 15051.0
1345.0 15051.0
736.0 15052.0
763.0 15052.0
852.0 15052.0
950.0 15052.0
1012.0 15052.0
1114.0 15052.0
1254.0 15052.0
1337.0 15052.0
1340.0 15052.0
1423.0 15052.0
1442.0 15052.0
347.0 15053.0
456.0 15053.0
599.0 15053.0
680.0 15053.0
714.0 15053.0
725.0 15053.0
735.0 15053.0
843.0 15053.0
1038.0 15053.0
1068.0 15053.0
1087.0 15053.0
1118.0 15053.0
1156.0 15053.0
1172.0 15053.0
1222.0 15053.0
1251.0 15053.0
1390.0 15053.0
1418.0 15053.0
738.0 15054.0
842.0 15054.0
861.0 15054.0
941.0 15054.0
959.0 15054.0
1001.0 15054.0
1075.0 15054.0
1088.0 15054.0
1135.0 15054.0
1165.0 15054.0
1204.0 15054.0
763.0 15055.0
841.0 15055.0
880.0 15055.0
1253.0 15055.0
1404.0 15055.0
1417.0 15055.0
1442.0 15055.0
680.0 15056.0
1016.0 15057.0
763.0 15058.0
1442.0 15058.0
680.0 15059.0
866.0 15060.0
763.0 15061.0
1442.0 15061.0
680.0 15062.0
763.0 15064.0
1105.0 15064.0
1442.0 15064.0
680.0 15065.0
860.0 15065.0
591.0 15066.0
851.0 15066.0
857.0 15066.0
1226.0 15066.0
763.0 15067.0
949.0 15067.0
973.0 15067.0
991.0 15067.0
1442.0 15067.0
680.0 15068.0
725.0 15068.0
735.0 15069.0
736.0 15069.0
852.0 15069.0
1012.0 15069.0
1114.0 15069.0
1337.0 15069.0
1345.0 15069.0
456.0 15070.0
599.0 15070.0
714.0 15070.0
763.0 15070.0
866.0 15070.0
950.0 15070.0
1038.0 15070.0
1068.0 15070.0
1156.0 15070.0
1172.0 15070.0
1222.0 15070.0
1251.0 15070.0
1254.0 15070.0
1340.0 15070.0
1390.0 15070.0
1423.0 15070.0
1442.0 15070.0
347.0 15071.0
680.0 15071.0
843.0 15071.0
1001.0 15071.0
1087.0 15071.0
1118.0 15071.0
1418.0 15071.0
738.0 15072.0
880.0 15072.0
1075.0 15072.0
1088.0 15072.0
1165.0 15072.0
1204.0 15072.0
763.0 15073.0
827.0 15073.0
842.0 15073.0
861.0 15073.0
941.0 15073.0
959.0 15073.0
1135.0 15073.0
1404.0 15073.0
1442.0 15073.0
680.0 15074.0
841.0 15074.0
1253.0 15074.0
1417.0 15074.0
625.0 15075.0
671.0 15075.0
763.0 15076.0
1016.0 15076.0
1355.0 15076.0
1442.0 15076.0
680.0 15077.0
801.0 15077.0
985.0 15077.0
763.0 15079.0
1105.0 15079.0
1442.0 15079.0
680.0 15080.0
860.0 15080.0
866.0 15080.0
894.0 15080.0
1084.0 15080.0
1225.0 15080.0
857.0 15081.0
1241.0 15081.0
591.0 15082.0
763.0 15082.0
949.0 15082.0
1226.0 15082.0
1442.0 15082.0
677.0 15083.0
680.0 15083.0
991.0 15083.0
1014.0 15083.0
717.0 15084.0
725.0 15084.0
973.0 15084.0
735.0 15085.0
763.0 15085.0
852.0 15085.0
870.0 15085.0
1442.0 15085.0
680.0 15086.0
714.0 15086.0
736.0 15086.0
1012.0 15086.0
1038.0 15086.0
1114.0 15086.0
1251.0 15086.0
1337.0 15086.0
1390.0 15086.0
599.0 15087.0
950.0 15087.0
981.0 15087.0
1172.0 15087.0
1222.0 15087.0
1254.0 15087.0
1345.0 15087.0
456.0 15088.0
719.0 15088.0
726.0 15088.0
763.0 15088.0
1068.0 15088.0
1156.0 15088.0
1340.0 15088.0
1423.0 15088.0
1442.0 15088.0
347.0 15089.0
680.0 15089.0
843.0 15089.0
880.0 15089.0
1001.0 15089.0
1087.0 15089.0
1118.0 15089.0
1418.0 15089.0
466.0 15090.0
738.0 15090.0
866.0 15090.0
1165.0 15090.0
1204.0 15090.0
612.0 15091.0
698.0 15091.0
763.0 15091.0
861.0 15091.0
959.0 15091.0
1075.0 15091.0
1088.0 15091.0
1135.0 15091.0
1148.0 15091.0
1404.0 15091.0
1442.0 15091.0
680.0 15092.0
704.0 15092.0
941.0 15092.0
1018.0 15092.0
475.0 15093.0
605.0 15093.0
679.0 15093.0
842.0 15093.0
951.0 15093.0
1134.0 15093.0
1253.0 15093.0
1417.0 15093.0
1419.0 15093.0
478.0 15094.0
734.0 15094.0
763.0 15094.0
841.0 15094.0
953.0 15094.0
960.0 15094.0
1205.0 15094.0
1442.0 15094.0
1446.0 15094.0
680.0 15095.0
942.0 15095.0
1016.0 15095.0
1105.0 15095.0
1243.0 15095.0
839.0 15096.0
860.0 15096.0
994.0 15096.0
1262.0 15096.0
241.0 15097.0
591.0 15097.0
632.0 15097.0
763.0 15097.0
850.0 15097.0
857.0 15097.0
1442.0 15097.0
680.0 15098.0
762.0 15098.0
949.0 15098.0
1115.0 15098.0
1226.0 15098.0
1257.0 15098.0
991.0 15099.0
1433.0 15099.0
725.0 15100.0
735.0 15100.0
763.0 15100.0
866.0 15100.0
973.0 15100.0
1442.0 15100.0
601.0 15101.0
680.0 15101.0
754.0 15101.0
852.0 15101.0
1136.0 15101.0
1436.0 15101.0
1445.0 15101.0
589.0 15102.0
714.0 15102.0
736.0 15103.0
763.0 15103.0
1012.0 15103.0
1038.0 15103.0
1222.0 15103.0
1251.0 15103.0
1252.0 15103.0
1337.0 15103.0
1390.0 15103.0
334.0 15104.0
599.0 15104.0
680.0 15104.0
863.0 15104.0
864.0 15104.0
950.0 15104.0
1114.0 15104.0
1117.0 15104.0
1172.0 15104.0
1196.0 15104.0
1254.0 15104.0
1442.0 15104.0
695.0 15105.0
1022.0 15105.0
1156.0 15105.0
1340.0 15105.0
1345.0 15105.0
347.0 15106.0
456.0 15106.0
744.0 15106.0
763.0 15106.0
880.0 15106.0
989.0 15106.0
1068.0 15106.0
1174.0 15106.0
1423.0 15106.0
613.0 15107.0
680.0 15107.0
837.0 15107.0
843.0 15107.0
883.0 15107.0
1001.0 15107.0
1087.0 15107.0
1118.0 15107.0
738.0 15108.0
886.0 15108.0
1075.0 15108.0
1418.0 15108.0
1442.0 15108.0
763.0 15109.0
861.0 15109.0
959.0 15109.0
1088.0 15109.0
1204.0 15109.0
1404.0 15109.0
680.0 15110.0
866.0 15110.0
1165.0 15110.0
598.0 15111.0
860.0 15111.0
941.0 15111.0
1010.0 15111.0
1105.0 15111.0
1271.0 15111.0
232.0 15112.0
763.0 15112.0
1135.0 15112.0
1442.0 15112.0
303.0 15113.0
366.0 15113.0
591.0 15113.0
680.0 15113.0
833.0 15113.0
842.0 15113.0
851.0 15113.0
857.0 15113.0
1417.0 15113.0
235.0 15114.0
811.0 15114.0
841.0 15114.0
893.0 15114.0
992.0 15114.0
1031.0 15114.0
1253.0 15114.0
426.0 15115.0
445.0 15115.0
449.0 15115.0
743.0 15115.0
763.0 15115.0
949.0 15115.0
1016.0 15115.0
1226.0 15115.0
1442.0 15115.0
680.0 15116.0
707.0 15116.0
1305.0 15116.0
991.0 15117.0
428.0 15118.0
435.0 15118.0
725.0 15118.0
735.0 15118.0
763.0 15118.0
852.0 15118.0
973.0 15118.0
407.0 15119.0
468.0 15119.0
680.0 15119.0
714.0 15119.0
975.0 15119.0
1442.0 15119.0
599.0 15120.0
671.0 15120.0
736.0 15120.0
881.0 15120.0
1012.0 15120.0
383.0 15121.0
705.0 15121.0
763.0 15121.0
866.0 15121.0
889.0 15121.0
1038.0 15121.0
1251.0 15121.0
1390.0 15121.0
607.0 15122.0
680.0 15122.0
950.0 15122.0
1172.0 15122.0
347.0 15123.0
1107.0 15123.0
1114.0 15123.0
1144.0 15123.0
1222.0 15123.0
1254.0 15123.0
1337.0 15123.0
1442.0 15123.0
456.0 15124.0
763.0 15124.0
843.0 15124.0
1156.0 15124.0
1300.0 15124.0
1340.0 15124.0
680.0 15125.0
827.0 15125.0
880.0 15125.0
1244.0 15125.0
860.0 15126.0
1001.0 15126.0
1068.0 15126.0
1345.0 15126.0
1423.0 15126.0
1442.0 15126.0
493.0 15127.0
763.0 15127.0
861.0 15127.0
1087.0 15127.0
434.0 15128.0
568.0 15128.0
680.0 15128.0
738.0 15128.0
1067.0 15128.0
1105.0 15128.0
1118.0 15128.0
1418.0 15128.0
591.0 15129.0
959.0 15129.0
1075.0 15129.0
763.0 15130.0
832.0 15130.0
1088.0 15130.0
1204.0 15130.0
1404.0 15130.0
1442.0 15130.0
476.0 15131.0
625.0 15131.0
680.0 15131.0
857.0 15131.0
1165.0 15131.0
866.0 15132.0
894.0 15132.0
941.0 15132.0
763.0 15133.0
949.0 15133.0
1135.0 15133.0
1226.0 15133.0
680.0 15134.0
841.0 15134.0
1417.0 15134.0
1442.0 15134.0
842.0 15135.0
1253.0 15135.0
725.0 15136.0
735.0 15136.0
763.0 15136.0
852.0 15136.0
859.0 15136.0
973.0 15136.0
991.0 15136.0
1014.0 15136.0
1016.0 15136.0
599.0 15137.0
680.0 15137.0
714.0 15137.0
736.0 15137.0
1442.0 15138.0
763.0 15139.0
1012.0 15139.0
1251.0 15139.0
347.0 15140.0
680.0 15140.0
1038.0 15140.0
860.0 15141.0
950.0 15141.0
1390.0 15141.0
456.0 15142.0
763.0 15142.0
843.0 15142.0
1114.0 15142.0
1172.0 15142.0
1442.0 15142.0
680.0 15143.0
866.0 15143.0
1222.0 15143.0
1254.0 15143.0
1337.0 15143.0
861.0 15144.0
1340.0 15144.0
591.0 15145.0
717.0 15145.0
763.0 15145.0
801.0 15145.0
880.0 15145.0
1156.0 15145.0
680.0 15146.0
1001.0 15146.0
1068.0 15146.0
1105.0 15146.0
1442.0 15146.0
1087.0 15147.0
1345.0 15147.0
1423.0 15147.0
763.0 15148.0
680.0 15149.0
738.0 15149.0
1084.0 15149.0
1418.0 15149.0
612.0 15150.0
857.0 15150.0
1118.0 15150.0
1442.0 15150.0
763.0 15151.0
870.0 15151.0
959.0 15151.0
1075.0 15151.0
1204.0 15151.0
1404.0 15151.0
677.0 15152.0
680.0 15152.0
1088.0 15152.0
1165.0 15152.0
841.0 15153.0
949.0 15153.0
1226.0 15153.0
599.0 15154.0
763.0 15154.0
941.0 15154.0
1442.0 15154.0
680.0 15155.0
736.0 15155.0
866.0 15155.0
981.0 15155.0
679.0 15156.0
714.0 15156.0
725.0 15156.0
735.0 15156.0
852.0 15156.0
973.0 15156.0
991.0 15156.0
1135.0 15156.0
763.0 15157.0
860.0 15157.0
347.0 15158.0
680.0 15158.0
1253.0 15158.0
1417.0 15158.0
1442.0 15158.0
466.0 15159.0
842.0 15159.0
1016.0 15159.0
456.0 15160.0
763.0 15160.0
843.0 15160.0
1012.0 15160.0
1038.0 15160.0
1251.0 15160.0
591.0 15161.0
680.0 15161.0
950.0 15161.0
1018.0 15161.0
1114.0 15161.0
475.0 15162.0
861.0 15162.0
1390.0 15162.0
1442.0 15162.0
478.0 15163.0
763.0 15163.0
1172.0 15163.0
1222.0 15163.0
680.0 15164.0
942.0 15164.0
1337.0 15164.0
726.0 15165.0
880.0 15165.0
1105.0 15165.0
1134.0 15165.0
1254.0 15165.0
1340.0 15165.0
763.0 15166.0
866.0 15166.0
1133.0 15166.0
1148.0 15166.0
1156.0 15166.0
1442.0 15166.0
680.0 15167.0
1001.0 15167.0
1068.0 15167.0
857.0 15168.0
1087.0 15168.0
1136.0 15168.0
1345.0 15168.0
763.0 15169.0
1423.0 15169.0
1442.0 15170.0
599.0 15171.0
680.0 15171.0
738.0 15171.0
1418.0 15171.0
241.0 15172.0
736.0 15172.0
763.0 15172.0
1118.0 15172.0
1204.0 15172.0
1404.0 15172.0
841.0 15173.0
860.0 15173.0
949.0 15173.0
959.0 15173.0
1075.0 15173.0
1226.0 15173.0
632.0 15174.0
680.0 15174.0
1442.0 15174.0
605.0 15175.0
735.0 15175.0
763.0 15175.0
1088.0 15175.0
1165.0 15175.0
347.0 15176.0
714.0 15176.0
725.0 15176.0
991.0 15176.0
680.0 15177.0
852.0 15177.0
973.0 15177.0
456.0 15178.0
591.0 15178.0
763.0 15178.0
843.0 15178.0
866.0 15178.0
941.0 15178.0
1262.0 15178.0
1442.0 15178.0
680.0 15180.0
1012.0 15180.0
1038.0 15180.0
1135.0 15180.0
334.0 15181.0
671.0 15181.0
763.0 15181.0
861.0 15181.0
989.0 15181.0
1016.0 15181.0
1251.0 15181.0
1253.0 15181.0
754.0 15182.0
762.0 15182.0
1114.0 15182.0
1390.0 15182.0
1417.0 15182.0
1442.0 15182.0
680.0 15183.0
842.0 15183.0
950.0 15183.0
763.0 15184.0
1105.0 15184.0
1172.0 15184.0
1222.0 15184.0
827.0 15185.0
880.0 15185.0
1337.0 15186.0
1442.0 15186.0
680.0 15187.0
763.0 15187.0
857.0 15187.0
1156.0 15187.0
1254.0 15187.0
1340.0 15187.0
599.0 15188.0
1001.0 15188.0
866.0 15189.0
680.0 15190.0
736.0 15190.0
763.0 15190.0
860.0 15190.0
1068.0 15190.0
1345.0 15190.0
1442.0 15190.0
625.0 15191.0
1087.0 15191.0
1423.0 15191.0
680.0 15193.0
763.0 15193.0
1404.0 15193.0
347.0 15194.0
738.0 15194.0
841.0 15194.0
949.0 15194.0
1226.0 15194.0
1418.0 15194.0
1442.0 15194.0
591.0 15195.0
735.0 15195.0
1118.0 15195.0
1204.0 15195.0
680.0 15196.0
725.0 15196.0
763.0 15196.0
843.0 15196.0
959.0 15196.0
456.0 15197.0
714.0 15197.0
991.0 15197.0
1075.0 15197.0
1165.0 15197.0
852.0 15198.0
973.0 15198.0
1442.0 15198.0
680.0 15199.0
1088.0 15199.0
763.0 15200.0
861.0 15200.0
1012.0 15200.0
1038.0 15200.0
866.0 15201.0
1251.0 15201.0
941.0 15202.0
1390.0 15202.0
1442.0 15202.0
680.0 15203.0
1105.0 15203.0
1114.0 15203.0
1135.0 15203.0
763.0 15204.0
1016.0 15204.0
1253.0 15205.0
680.0 15206.0
880.0 15206.0
950.0 15206.0
1172.0 15206.0
1222.0 15206.0
1417.0 15206.0
1442.0 15206.0
599.0 15207.0
857.0 15207.0
763.0 15208.0
842.0 15208.0
860.0 15208.0
680.0 15209.0
1254.0 15209.0
1337.0 15209.0
1340.0 15209.0
1442.0 15210.0
736.0 15211.0
763.0 15211.0
1001.0 15211.0
1156.0 15211.0
680.0 15212.0
1068.0 15212.0
591.0 15213.0
1345.0 15213.0
1423.0 15213.0
866.0 15214.0
949.0 15214.0
1442.0 15214.0
347.0 15215.0
680.0 15215.0
763.0 15215.0
1087.0 15215.0
1226.0 15215.0
456.0 15217.0
735.0 15217.0
738.0 15217.0
841.0 15217.0
843.0 15217.0
1404.0 15217.0
1418.0 15217.0
680.0 15218.0
714.0 15218.0
725.0 15218.0
991.0 15218.0
1118.0 15218.0
1204.0 15218.0
763.0 15219.0
852.0 15219.0
973.0 15219.0
1442.0 15219.0
959.0 15220.0
1075.0 15220.0
680.0 15221.0
763.0 15223.0
861.0 15223.0
1088.0 15223.0
1105.0 15223.0
1165.0 15223.0
1442.0 15223.0
680.0 15224.0
1038.0 15225.0
1114.0 15225.0
941.0 15226.0
1251.0 15226.0
680.0 15227.0
763.0 15227.0
857.0 15227.0
860.0 15227.0
866.0 15227.0
1012.0 15227.0
1135.0 15227.0
599.0 15228.0
1222.0 15228.0
1390.0 15228.0
801.0 15229.0
950.0 15229.0
1442.0 15229.0
680.0 15230.0
763.0 15231.0
591.0 15232.0
736.0 15232.0
880.0 15232.0
1337.0 15232.0
1340.0 15232.0
680.0 15233.0
1254.0 15233.0
1417.0 15233.0
842.0 15234.0
1442.0 15234.0
763.0 15235.0
949.0 15235.0
1068.0 15235.0
1172.0 15235.0
347.0 15236.0
680.0 15236.0
1345.0 15237.0
1423.0 15237.0
1226.0 15238.0
456.0 15239.0
680.0 15239.0
763.0 15239.0
843.0 15239.0
1016.0 15239.0
1442.0 15239.0
1087.0 15240.0
714.0 15241.0
866.0 15241.0
991.0 15241.0
680.0 15242.0
738.0 15242.0
841.0 15242.0
852.0 15242.0
1253.0 15242.0
1418.0 15242.0
763.0 15243.0
973.0 15243.0
1156.0 15243.0
1001.0 15244.0
1118.0 15244.0
1204.0 15244.0
1105.0 15245.0
1442.0 15245.0
680.0 15246.0
861.0 15246.0
1075.0 15246.0
725.0 15247.0
735.0 15247.0
763.0 15247.0
860.0 15247.0
959.0 15247.0
680.0 15250.0
857.0 15250.0
599.0 15251.0
763.0 15251.0
1114.0 15251.0
1442.0 15251.0
591.0 15252.0
1088.0 15253.0
1404.0 15253.0
680.0 15254.0
736.0 15254.0
763.0 15255.0
1222.0 15255.0
866.0 15256.0
1442.0 15257.0
680.0 15258.0
763.0 15259.0
347.0 15260.0
1135.0 15261.0
680.0 15262.0
950.0 15262.0
1038.0 15262.0
1251.0 15262.0
763.0 15263.0
1165.0 15263.0
1442.0 15263.0
1337.0 15264.0
456.0 15265.0
941.0 15265.0
680.0 15266.0
843.0 15266.0
1390.0 15266.0
763.0 15267.0
949.0 15267.0
1012.0 15267.0
1340.0 15267.0
1254.0 15268.0
1442.0 15269.0
680.0 15270.0
880.0 15270.0
763.0 15271.0
860.0 15272.0
841.0 15273.0
1068.0 15273.0
680.0 15274.0
866.0 15274.0
1423.0 15274.0
763.0 15275.0
861.0 15275.0
991.0 15275.0
1172.0 15275.0
1226.0 15275.0
1442.0 15275.0
714.0 15277.0
1345.0 15277.0
591.0 15278.0
680.0 15278.0
852.0 15278.0
599.0 15279.0
973.0 15279.0
1105.0 15279.0
763.0 15280.0
1417.0 15280.0
842.0 15281.0
1442.0 15281.0
680.0 15282.0
738.0 15282.0
1087.0 15282.0
725.0 15283.0
736.0 15283.0
763.0 15285.0
1418.0 15285.0
857.0 15286.0
680.0 15287.0
735.0 15287.0
1204.0 15287.0
1442.0 15287.0
347.0 15289.0
680.0 15291.0
763.0 15291.0
866.0 15293.0
1442.0 15293.0
680.0 15296.0
1075.0 15296.0
763.0 15297.0
1114.0 15297.0
1118.0 15297.0
1442.0 15299.0
680.0 15302.0
763.0 15303.0
1442.0 15305.0
680.0 15308.0
763.0 15309.0
1442.0 15311.0
680.0 15314.0
763.0 15315.0
1442.0 15319.0
866.0 15320.0
680.0 15321.0
763.0 15321.0
763.0 15327.0
1442.0 15327.0
763.0 15333.0
1442.0 15335.0
763.0 15339.0
1442.0 15343.0
763.0 15347.0
1442.0 15351.0
763.0 15355.0
1442.0 15359.0
763.0 15363.0
1442.0 15367.0
763.0 15371.0
1442.0 15375.0
1442.0 15383.0
1442.0 15393.0
