241.0 16351.0
334.0 16363.0
347.0 16238.0
347.0 16260.0
347.0 16281.0
347.0 16302.0
347.0 16323.0
347.0 16345.0
347.0 16369.0
347.0 16395.0
347.0 16424.0
347.0 16451.0
347.0 16479.0
347.0 16507.0
347.0 16535.0
347.0 16563.0
347.0 16590.0
456.0 16239.0
456.0 16261.0
456.0 16283.0
456.0 16304.0
456.0 16325.0
456.0 16348.0
456.0 16372.0
456.0 16398.0
456.0 16425.0
456.0 16454.0
456.0 16480.0
456.0 16508.0
456.0 16537.0
456.0 16564.0
456.0 16593.0
466.0 16359.0
475.0 16326.0
475.0 16545.0
478.0 16328.0
591.0 16238.0
591.0 16258.0
591.0 16278.0
591.0 16298.0
591.0 16318.0
591.0 16339.0
591.0 16360.0
591.0 16383.0
591.0 16410.0
591.0 16436.0
591.0 16462.0
591.0 16489.0
591.0 16515.0
591.0 16540.0
591.0 16567.0
591.0 16592.0
599.0 16238.0
599.0 16259.0
599.0 16280.0
599.0 16301.0
599.0 16321.0
599.0 16343.0
599.0 16368.0
599.0 16394.0
599.0 16424.0
599.0 16451.0
599.0 16478.0
599.0 16508.0
599.0 16535.0
599.0 16564.0
599.0 16592.0
605.0 16372.0
612.0 16305.0
612.0 16390.0
612.0 16509.0
612.0 16593.0
625.0 16289.0
625.0 16367.0
625.0 16460.0
680.0 16206.0
680.0 16210.0
680.0 16214.0
680.0 16218.0
680.0 16222.0
680.0 16226.0
680.0 16230.0
680.0 16234.0
680.0 16238.0
680.0 16242.0
680.0 16246.0
680.0 16250.0
680.0 16254.0
680.0 16258.0
680.0 16262.0
680.0 16266.0
680.0 16270.0
680.0 16274.0
680.0 16278.0
680.0 16282.0
680.0 16286.0
680.0 16290.0
680.0 16294.0
680.0 16298.0
680.0 16302.0
680.0 16306.0
680.0 16310.0
680.0 16314.0
680.0 16318.0
680.0 16322.0
680.0 16326.0
680.0 16330.0
680.0 16335.0
680.0 16339.0
680.0 16344.0
680.0 16348.0
680.0 16353.0
680.0 16358.0
680.0 16363.0
680.0 16368.0
680.0 16373.0
680.0 16378.0
680.0 16383.0
680.0 16389.0
680.0 16395.0
680.0 16401.0
680.0 16407.0
680.0 16413.0
680.0 16419.0
680.0 16425.0
680.0 16431.0
680.0 16437.0
680.0 16443.0
680.0 16449.0
680.0 16455.0
680.0 16461.0
680.0 16467.0
680.0 16473.0
680.0 16479.0
680.0 16485.0
680.0 16491.0
680.0 16497.0
680.0 16503.0
680.0 16509.0
680.0 16515.0
680.0 16521.0
680.0 16527.0
680.0 16533.0
680.0 16539.0
680.0 16545.0
680.0 16551.0
680.0 16557.0
680.0 16563.0
680.0 16569.0
680.0 16575.0
680.0 16581.0
680.0 16587.0
680.0 16593.0
714.0 16242.0
714.0 16268.0
714.0 16293.0
714.0 16319.0
714.0 16345.0
714.0 16376.0
714.0 16414.0
714.0 16452.0
714.0 16489.0
714.0 16527.0
714.0 16568.0
725.0 16240.0
725.0 16260.0
725.0 16280.0
725.0 16300.0
725.0 16319.0
725.0 16339.0
725.0 16360.0
725.0 16380.0
725.0 16400.0
725.0 16420.0
725.0 16440.0
725.0 16461.0
725.0 16481.0
725.0 16501.0
725.0 16521.0
725.0 16541.0
725.0 16562.0
725.0 16581.0
726.0 16362.0
726.0 16461.0
735.0 16237.0
735.0 16257.0
735.0 16276.0
735.0 16296.0
735.0 16316.0
735.0 16336.0
735.0 16356.0
735.0 16376.0
735.0 16396.0
735.0 16416.0
735.0 16436.0
735.0 16457.0
735.0 16477.0
735.0 16498.0
735.0 16517.0
735.0 16538.0
735.0 16558.0
735.0 16577.0
735.0 16598.0
736.0 16237.0
736.0 16258.0
736.0 16279.0
736.0 16301.0
736.0 16322.0
736.0 16343.0
736.0 16366.0
736.0 16390.0
736.0 16417.0
736.0 16444.0
736.0 16473.0
736.0 16500.0
736.0 16527.0
736.0 16555.0
736.0 16582.0
738.0 16244.0
738.0 16272.0
738.0 16300.0
738.0 16329.0
738.0 16361.0
738.0 16401.0
738.0 16449.0
738.0 16497.0
738.0 16545.0
738.0 16591.0
754.0 16341.0
762.0 16334.0
763.0 16206.0
763.0 16210.0
763.0 16214.0
763.0 16217.0
763.0 16221.0
763.0 16224.0
763.0 16228.0
763.0 16231.0
763.0 16234.0
763.0 16237.0
763.0 16240.0
763.0 16243.0
763.0 16246.0
763.0 16249.0
763.0 16252.0
763.0 16255.0
763.0 16258.0
763.0 16261.0
763.0 16264.0
763.0 16267.0
763.0 16270.0
763.0 16273.0
763.0 16276.0
763.0 16279.0
763.0 16282.0
763.0 16285.0
763.0 16288.0
763.0 16291.0
763.0 16294.0
763.0 16297.0
763.0 16300.0
763.0 16303.0
763.0 16306.0
763.0 16309.0
763.0 16312.0
763.0 16315.0
763.0 16318.0
763.0 16321.0
763.0 16324.0
763.0 16327.0
763.0 16330.0
763.0 16333.0
763.0 16336.0
763.0 16339.0
763.0 16342.0
763.0 16345.0
763.0 16348.0
763.0 16351.0
763.0 16354.0
763.0 16357.0
763.0 16360.0
763.0 16363.0
763.0 16366.0
763.0 16369.0
763.0 16372.0
763.0 16375.0
763.0 16378.0
763.0 16381.0
763.0 16384.0
763.0 16387.0
763.0 16390.0
763.0 16393.0
763.0 16396.0
763.0 16399.0
763.0 16402.0
763.0 16405.0
763.0 16408.0
763.0 16411.0
763.0 16414.0
763.0 16417.0
763.0 16420.0
763.0 16423.0
763.0 16426.0
763.0 16429.0
763.0 16432.0
763.0 16435.0
763.0 16438.0
763.0 16441.0
763.0 16444.0
763.0 16447.0
763.0 16450.0
763.0 16453.0
763.0 16456.0
763.0 16459.0
763.0 16462.0
763.0 16465.0
763.0 16468.0
763.0 16471.0
763.0 16474.0
763.0 16477.0
763.0 16480.0
763.0 16483.0
763.0 16486.0
763.0 16489.0
763.0 16492.0
763.0 16495.0
763.0 16498.0
763.0 16501.0
763.0 16504.0
763.0 16507.0
763.0 16510.0
763.0 16513.0
763.0 16516.0
763.0 16519.0
763.0 16522.0
763.0 16525.0
763.0 16528.0
763.0 16531.0
763.0 16534.0
763.0 16537.0
763.0 16540.0
763.0 16543.0
763.0 16546.0
763.0 16549.0
763.0 16552.0
763.0 16555.0
763.0 16558.0
763.0 16561.0
763.0 16564.0
763.0 16567.0
763.0 16570.0
763.0 16573.0
763.0 16576.0
763.0 16579.0
763.0 16582.0
763.0 16585.0
763.0 16588.0
763.0 16591.0
763.0 16594.0
763.0 16600.0
841.0 16239.0
841.0 16263.0
841.0 16287.0
841.0 16310.0
841.0 16333.0
841.0 16360.0
841.0 16387.0
841.0 16417.0
841.0 16448.0
841.0 16477.0
841.0 16507.0
841.0 16538.0
841.0 16570.0
842.0 16242.0
842.0 16274.0
842.0 16306.0
842.0 16338.0
842.0 16377.0
842.0 16431.0
842.0 16484.0
842.0 16539.0
842.0 16590.0
843.0 16239.0
843.0 16261.0
843.0 16283.0
843.0 16305.0
843.0 16327.0
843.0 16351.0
843.0 16376.0
843.0 16404.0
843.0 16433.0
843.0 16463.0
843.0 16492.0
843.0 16520.0
843.0 16549.0
843.0 16578.0
852.0 16241.0
852.0 16266.0
852.0 16292.0
852.0 16318.0
852.0 16345.0
852.0 16377.0
852.0 16412.0
852.0 16449.0
852.0 16489.0
852.0 16526.0
852.0 16564.0
852.0 16599.0
857.0 16242.0
857.0 16267.0
857.0 16292.0
857.0 16316.0
857.0 16341.0
857.0 16371.0
857.0 16407.0
857.0 16443.0
857.0 16479.0
857.0 16517.0
857.0 16552.0
857.0 16587.0
860.0 16236.0
860.0 16255.0
860.0 16275.0
860.0 16295.0
860.0 16315.0
860.0 16335.0
860.0 16356.0
860.0 16379.0
860.0 16403.0
860.0 16430.0
860.0 16455.0
860.0 16481.0
860.0 16505.0
860.0 16532.0
860.0 16557.0
860.0 16581.0
861.0 16239.0
861.0 16262.0
861.0 16284.0
861.0 16307.0
861.0 16328.0
861.0 16352.0
861.0 16378.0
861.0 16407.0
861.0 16436.0
861.0 16466.0
861.0 16496.0
861.0 16526.0
861.0 16556.0
861.0 16586.0
866.0 16228.0
866.0 16242.0
866.0 16255.0
866.0 16268.0
866.0 16281.0
866.0 16294.0
866.0 16307.0
866.0 16320.0
866.0 16333.0
866.0 16346.0
866.0 16360.0
866.0 16374.0
866.0 16388.0
866.0 16403.0
866.0 16418.0
866.0 16432.0
866.0 16447.0
866.0 16462.0
866.0 16477.0
866.0 16491.0
866.0 16506.0
866.0 16521.0
866.0 16535.0
866.0 16550.0
866.0 16565.0
866.0 16579.0
866.0 16593.0
870.0 16292.0
870.0 16378.0
870.0 16501.0
870.0 16597.0
880.0 16240.0
880.0 16261.0
880.0 16282.0
880.0 16303.0
880.0 16324.0
880.0 16345.0
880.0 16366.0
880.0 16387.0
880.0 16408.0
880.0 16429.0
880.0 16450.0
880.0 16471.0
880.0 16492.0
880.0 16513.0
880.0 16534.0
880.0 16555.0
880.0 16576.0
880.0 16596.0
881.0 16314.0
881.0 16524.0
889.0 16327.0
889.0 16435.0
889.0 16528.0
894.0 16287.0
894.0 16370.0
894.0 16439.0
894.0 16515.0
894.0 16583.0
941.0 16241.0
941.0 16272.0
941.0 16302.0
941.0 16333.0
941.0 16368.0
941.0 16422.0
941.0 16476.0
941.0 16530.0
941.0 16580.0
949.0 16241.0
949.0 16267.0
949.0 16292.0
949.0 16317.0
949.0 16344.0
949.0 16374.0
949.0 16412.0
949.0 16453.0
949.0 16495.0
949.0 16533.0
949.0 16573.0
950.0 16241.0
950.0 16270.0
950.0 16299.0
950.0 16329.0
950.0 16363.0
950.0 16407.0
950.0 16455.0
950.0 16503.0
950.0 16549.0
950.0 16594.0
959.0 16243.0
959.0 16275.0
959.0 16305.0
959.0 16335.0
959.0 16373.0
959.0 16420.0
959.0 16468.0
959.0 16520.0
959.0 16571.0
973.0 16239.0
973.0 16265.0
973.0 16291.0
973.0 16318.0
973.0 16344.0
973.0 16375.0
973.0 16411.0
973.0 16447.0
973.0 16486.0
973.0 16526.0
973.0 16563.0
973.0 16599.0
989.0 16429.0
991.0 16240.0
991.0 16266.0
991.0 16291.0
991.0 16316.0
991.0 16342.0
991.0 16374.0
991.0 16412.0
991.0 16451.0
991.0 16491.0
991.0 16530.0
991.0 16568.0
1001.0 16238.0
1001.0 16260.0
1001.0 16282.0
1001.0 16304.0
1001.0 16325.0
1001.0 16346.0
1001.0 16367.0
1001.0 16388.0
1001.0 16409.0
1001.0 16430.0
1001.0 16451.0
1001.0 16472.0
1001.0 16493.0
1001.0 16514.0
1001.0 16535.0
1001.0 16556.0
1001.0 16577.0
1001.0 16598.0
1012.0 16237.0
1012.0 16258.0
1012.0 16279.0
1012.0 16300.0
1012.0 16321.0
1012.0 16342.0
1012.0 16363.0
1012.0 16384.0
1012.0 16405.0
1012.0 16426.0
1012.0 16447.0
1012.0 16468.0
1012.0 16489.0
1012.0 16510.0
1012.0 16531.0
1012.0 16552.0
1012.0 16573.0
1012.0 16593.0
1014.0 16318.0
1014.0 16415.0
1014.0 16525.0
1016.0 16240.0
1016.0 16263.0
1016.0 16286.0
1016.0 16309.0
1016.0 16332.0
1016.0 16355.0
1016.0 16378.0
1016.0 16401.0
1016.0 16424.0
1016.0 16447.0
1016.0 16471.0
1016.0 16495.0
1016.0 16519.0
1016.0 16543.0
1016.0 16567.0
1016.0 16590.0
1018.0 16301.0
1018.0 16406.0
1018.0 16499.0
1018.0 16598.0
1022.0 16389.0
1022.0 16539.0
1031.0 16374.0
1031.0 16524.0
1038.0 16237.0
1038.0 16258.0
1038.0 16278.0
1038.0 16298.0
1038.0 16318.0
1038.0 16338.0
1038.0 16358.0
1038.0 16378.0
1038.0 16398.0
1038.0 16418.0
1038.0 16438.0
1038.0 16459.0
1038.0 16480.0
1038.0 16501.0
1038.0 16522.0
1038.0 16542.0
1038.0 16564.0
1038.0 16585.0
1068.0 16241.0
1068.0 16269.0
1068.0 16297.0
1068.0 16325.0
1068.0 16356.0
1068.0 16393.0
1068.0 16437.0
1068.0 16482.0
1068.0 16525.0
1068.0 16569.0
1075.0 16242.0
1075.0 16272.0
1075.0 16302.0
1075.0 16332.0
1075.0 16367.0
1075.0 16412.0
1075.0 16460.0
1075.0 16508.0
1075.0 16556.0
1075.0 16599.0
1087.0 16243.0
1087.0 16271.0
1087.0 16299.0
1087.0 16327.0
1087.0 16359.0
1087.0 16399.0
1087.0 16447.0
1087.0 16495.0
1087.0 16543.0
1087.0 16590.0
1088.0 16242.0
1088.0 16271.0
1088.0 16301.0
1088.0 16330.0
1088.0 16363.0
1088.0 16405.0
1088.0 16452.0
1088.0 16500.0
1088.0 16548.0
1088.0 16591.0
1105.0 16239.0
1105.0 16263.0
1105.0 16287.0
1105.0 16311.0
1105.0 16335.0
1105.0 16362.0
1105.0 16390.0
1105.0 16424.0
1105.0 16460.0
1105.0 16494.0
1105.0 16527.0
1105.0 16562.0
1105.0 16594.0
1114.0 16241.0
1114.0 16267.0
1114.0 16294.0
1114.0 16321.0
1114.0 16350.0
1114.0 16383.0
1114.0 16419.0
1114.0 16459.0
1114.0 16502.0
1114.0 16545.0
1114.0 16585.0
1118.0 16242.0
1118.0 16271.0
1118.0 16300.0
1118.0 16330.0
1118.0 16364.0
1118.0 16407.0
1118.0 16456.0
1118.0 16506.0
1118.0 16556.0
1134.0 16324.0
1134.0 16425.0
1134.0 16513.0
1135.0 16242.0
1135.0 16273.0
1135.0 16304.0
1135.0 16334.0
1135.0 16370.0
1135.0 16419.0
1135.0 16469.0
1135.0 16521.0
1135.0 16570.0
1148.0 16322.0
1148.0 16537.0
1156.0 16237.0
1156.0 16258.0
1156.0 16279.0
1156.0 16300.0
1156.0 16321.0
1156.0 16342.0
1156.0 16363.0
1156.0 16384.0
1156.0 16405.0
1156.0 16426.0
1156.0 16447.0
1156.0 16469.0
1156.0 16490.0
1156.0 16510.0
1156.0 16531.0
1156.0 16552.0
1156.0 16573.0
1156.0 16593.0
1165.0 16237.0
1165.0 16259.0
1165.0 16280.0
1165.0 16302.0
1165.0 16324.0
1165.0 16345.0
1165.0 16367.0
1165.0 16389.0
1165.0 16411.0
1165.0 16433.0
1165.0 16455.0
1165.0 16477.0
1165.0 16499.0
1165.0 16521.0
1165.0 16543.0
1165.0 16566.0
1165.0 16588.0
1172.0 16237.0
1172.0 16258.0
1172.0 16279.0
1172.0 16300.0
1172.0 16321.0
1172.0 16342.0
1172.0 16363.0
1172.0 16384.0
1172.0 16405.0
1172.0 16426.0
1172.0 16447.0
1172.0 16468.0
1172.0 16489.0
1172.0 16511.0
1172.0 16532.0
1172.0 16553.0
1172.0 16574.0
1172.0 16595.0
1204.0 16243.0
1204.0 16272.0
1204.0 16300.0
1204.0 16328.0
1204.0 16360.0
1204.0 16400.0
1204.0 16448.0
1204.0 16496.0
1204.0 16544.0
1204.0 16591.0
1222.0 16242.0
1222.0 16269.0
1222.0 16296.0
1222.0 16323.0
1222.0 16352.0
1222.0 16385.0
1222.0 16426.0
1222.0 16467.0
1222.0 16510.0
1222.0 16551.0
1222.0 16591.0
1226.0 16240.0
1226.0 16266.0
1226.0 16291.0
1226.0 16318.0
1226.0 16346.0
1226.0 16378.0
1226.0 16415.0
1226.0 16454.0
1226.0 16495.0
1226.0 16532.0
1226.0 16570.0
1251.0 16237.0
1251.0 16258.0
1251.0 16279.0
1251.0 16300.0
1251.0 16321.0
1251.0 16342.0
1251.0 16363.0
1251.0 16384.0
1251.0 16405.0
1251.0 16426.0
1251.0 16447.0
1251.0 16468.0
1251.0 16489.0
1251.0 16509.0
1251.0 16530.0
1251.0 16550.0
1251.0 16570.0
1251.0 16590.0
1252.0 16324.0
1253.0 16238.0
1253.0 16261.0
1253.0 16284.0
1253.0 16307.0
1253.0 16330.0
1253.0 16353.0
1253.0 16377.0
1253.0 16401.0
1253.0 16424.0
1253.0 16447.0
1253.0 16470.0
1253.0 16493.0
1253.0 16516.0
1253.0 16539.0
1253.0 16562.0
1253.0 16585.0
1254.0 16241.0
1254.0 16269.0
1254.0 16297.0
1254.0 16325.0
1254.0 16354.0
1254.0 16389.0
1254.0 16432.0
1254.0 16474.0
1254.0 16517.0
1254.0 16559.0
1262.0 16332.0
1337.0 16241.0
1337.0 16269.0
1337.0 16297.0
1337.0 16325.0
1337.0 16354.0
1337.0 16389.0
1337.0 16431.0
1337.0 16473.0
1337.0 16515.0
1337.0 16557.0
1337.0 16596.0
1340.0 16240.0
1340.0 16267.0
1340.0 16295.0
1340.0 16323.0
1340.0 16353.0
1340.0 16388.0
1340.0 16430.0
1340.0 16473.0
1340.0 16514.0
1340.0 16557.0
1340.0 16598.0
1345.0 16240.0
1345.0 16269.0
1345.0 16297.0
1345.0 16325.0
1345.0 16357.0
1345.0 16396.0
1345.0 16444.0
1345.0 16492.0
1345.0 16541.0
1345.0 16588.0
1390.0 16238.0
1390.0 16258.0
1390.0 16278.0
1390.0 16298.0
1390.0 16318.0
1390.0 16338.0
1390.0 16358.0
1390.0 16378.0
1390.0 16399.0
1390.0 16419.0
1390.0 16439.0
1390.0 16459.0
1390.0 16479.0
1390.0 16499.0
1390.0 16520.0
1390.0 16540.0
1390.0 16561.0
1390.0 16582.0
1404.0 16239.0
1404.0 16261.0
1404.0 16283.0
1404.0 16304.0
1404.0 16325.0
1404.0 16347.0
1404.0 16369.0
1404.0 16391.0
1404.0 16412.0
1404.0 16433.0
1404.0 16455.0
1404.0 16477.0
1404.0 16499.0
1404.0 16520.0
1404.0 16541.0
1404.0 16563.0
1404.0 16585.0
1417.0 16244.0
1417.0 16275.0
1417.0 16306.0
1417.0 16336.0
1417.0 16375.0
1417.0 16426.0
1417.0 16479.0
1417.0 16530.0
1417.0 16582.0
1418.0 16242.0
1418.0 16271.0
1418.0 16300.0
1418.0 16329.0
1418.0 16362.0
1418.0 16402.0
1418.0 16446.0
1418.0 16492.0
1418.0 16539.0
1418.0 16587.0
1423.0 16241.0
1423.0 16269.0
1423.0 16297.0
1423.0 16325.0
1423.0 16355.0
1423.0 16390.0
1423.0 16434.0
1423.0 16479.0
1423.0 16522.0
1423.0 16565.0
1442.0 16206.0
1442.0 16211.0
1442.0 16214.0
1442.0 16219.0
1442.0 16222.0
1442.0 16226.0
1442.0 16230.0
1442.0 16234.0
1442.0 16238.0
1442.0 16242.0
1442.0 16246.0
1442.0 16250.0
1442.0 16254.0
1442.0 16258.0
1442.0 16262.0
1442.0 16266.0
1442.0 16270.0
1442.0 16274.0
1442.0 16278.0
1442.0 16282.0
1442.0 16286.0
1442.0 16290.0
1442.0 16294.0
1442.0 16298.0
1442.0 16302.0
1442.0 16306.0
1442.0 16310.0
1442.0 16314.0
1442.0 16318.0
1442.0 16322.0
1442.0 16326.0
1442.0 16330.0
1442.0 16334.0
1442.0 16338.0
1442.0 16342.0
1442.0 16346.0
1442.0 16350.0
1442.0 16354.0
1442.0 16358.0
1442.0 16362.0
1442.0 16366.0
1442.0 16370.0
1442.0 16374.0
1442.0 16378.0
1442.0 16382.0
1442.0 16386.0
1442.0 16390.0
1442.0 16394.0
1442.0 16398.0
1442.0 16402.0
1442.0 16406.0
1442.0 16410.0
1442.0 16414.0
1442.0 16418.0
1442.0 16422.0
1442.0 16426.0
1442.0 16430.0
1442.0 16434.0
1442.0 16438.0
1442.0 16442.0
1442.0 16446.0
1442.0 16450.0
1442.0 16454.0
1442.0 16458.0
1442.0 16462.0
1442.0 16466.0
1442.0 16470.0
1442.0 16474.0
1442.0 16478.0
1442.0 16482.0
1442.0 16486.0
1442.0 16490.0
1442.0 16494.0
1442.0 16498.0
1442.0 16502.0
1442.0 16506.0
1442.0 16510.0
1442.0 16514.0
1442.0 16518.0
1442.0 16522.0
1442.0 16526.0
1442.0 16530.0
1442.0 16534.0
1442.0 16538.0
1442.0 16542.0
1442.0 16546.0
1442.0 16550.0
1442.0 16554.0
1442.0 16558.0
1442.0 16562.0
1442.0 16566.0
1442.0 16570.0
1442.0 16574.0
1442.0 16578.0
1442.0 16582.0
1442.0 16585.0
1442.0 16589.0
1442.0 16593.0
1442.0 16598.0
