763.0 16806.0
1442.0 16806.0
680.0 16807.0
763.0 16810.0
1442.0 16810.0
680.0 16813.0
763.0 16814.0
1442.0 16814.0
680.0 16818.0
763.0 16818.0
1442.0 16818.0
763.0 16822.0
1442.0 16822.0
680.0 16823.0
763.0 16825.0
1442.0 16825.0
680.0 16828.0
763.0 16829.0
1442.0 16829.0
866.0 16830.0
680.0 16833.0
763.0 16833.0
1442.0 16833.0
763.0 16836.0
1442.0 16836.0
1012.0 16837.0
680.0 16838.0
1156.0 16838.0
1172.0 16838.0
1251.0 16838.0
735.0 16839.0
1001.0 16839.0
1038.0 16839.0
1165.0 16839.0
1253.0 16839.0
1390.0 16839.0
725.0 16840.0
763.0 16840.0
1404.0 16840.0
1442.0 16840.0
880.0 16841.0
1016.0 16841.0
680.0 16843.0
1442.0 16843.0
736.0 16844.0
763.0 16844.0
860.0 16844.0
973.0 16844.0
1105.0 16844.0
1340.0 16844.0
866.0 16845.0
1226.0 16845.0
1254.0 16845.0
1337.0 16845.0
591.0 16846.0
857.0 16846.0
949.0 16846.0
991.0 16846.0
1114.0 16846.0
1345.0 16846.0
1423.0 16846.0
1442.0 16846.0
456.0 16847.0
714.0 16847.0
843.0 16847.0
852.0 16847.0
941.0 16847.0
950.0 16847.0
1068.0 16847.0
1075.0 16847.0
1088.0 16847.0
1135.0 16847.0
1222.0 16847.0
1418.0 16847.0
347.0 16848.0
599.0 16848.0
680.0 16848.0
763.0 16848.0
842.0 16848.0
861.0 16848.0
959.0 16848.0
1087.0 16848.0
1118.0 16848.0
1204.0 16848.0
738.0 16849.0
1417.0 16849.0
1442.0 16849.0
841.0 16851.0
763.0 16852.0
1442.0 16852.0
680.0 16853.0
763.0 16855.0
1442.0 16855.0
680.0 16858.0
1012.0 16858.0
1442.0 16858.0
725.0 16859.0
735.0 16859.0
763.0 16859.0
866.0 16859.0
1156.0 16859.0
1172.0 16859.0
1251.0 16859.0
1038.0 16860.0
1390.0 16860.0
1001.0 16861.0
1165.0 16861.0
1442.0 16861.0
880.0 16862.0
1253.0 16862.0
1404.0 16862.0
680.0 16863.0
763.0 16863.0
1016.0 16864.0
1442.0 16864.0
1105.0 16866.0
763.0 16867.0
1442.0 16867.0
680.0 16868.0
973.0 16868.0
1226.0 16868.0
1340.0 16868.0
857.0 16869.0
991.0 16869.0
714.0 16870.0
949.0 16870.0
1114.0 16870.0
1254.0 16870.0
1337.0 16870.0
1442.0 16870.0
763.0 16871.0
1222.0 16871.0
1423.0 16871.0
852.0 16872.0
1068.0 16872.0
1345.0 16872.0
680.0 16873.0
860.0 16873.0
866.0 16873.0
950.0 16873.0
1075.0 16873.0
1088.0 16873.0
1442.0 16873.0
941.0 16874.0
1087.0 16874.0
1118.0 16874.0
1135.0 16874.0
1204.0 16874.0
1418.0 16874.0
738.0 16875.0
763.0 16875.0
959.0 16875.0
591.0 16876.0
736.0 16876.0
842.0 16876.0
1442.0 16876.0
1417.0 16877.0
680.0 16878.0
1012.0 16878.0
725.0 16879.0
735.0 16879.0
763.0 16879.0
1251.0 16879.0
1442.0 16879.0
1038.0 16880.0
1156.0 16880.0
1172.0 16880.0
456.0 16881.0
599.0 16881.0
851.0 16881.0
1390.0 16881.0
843.0 16882.0
880.0 16882.0
1442.0 16882.0
347.0 16883.0
680.0 16883.0
763.0 16883.0
1001.0 16883.0
1165.0 16883.0
1404.0 16884.0
1253.0 16885.0
1442.0 16885.0
763.0 16887.0
866.0 16887.0
1016.0 16887.0
1105.0 16887.0
680.0 16888.0
861.0 16888.0
1442.0 16888.0
1355.0 16890.0
763.0 16891.0
857.0 16891.0
1442.0 16891.0
973.0 16892.0
991.0 16892.0
1226.0 16892.0
680.0 16893.0
841.0 16893.0
949.0 16893.0
1340.0 16893.0
714.0 16894.0
1114.0 16894.0
1254.0 16894.0
1337.0 16894.0
1442.0 16894.0
763.0 16895.0
1222.0 16895.0
852.0 16896.0
1423.0 16896.0
1068.0 16897.0
1442.0 16897.0
680.0 16898.0
725.0 16899.0
763.0 16899.0
950.0 16899.0
1012.0 16899.0
1075.0 16899.0
1087.0 16899.0
1088.0 16899.0
1204.0 16899.0
1251.0 16899.0
1345.0 16899.0
735.0 16900.0
738.0 16900.0
1038.0 16900.0
1118.0 16900.0
1135.0 16900.0
1418.0 16900.0
1442.0 16900.0
866.0 16901.0
941.0 16901.0
1156.0 16901.0
1172.0 16901.0
1390.0 16901.0
959.0 16902.0
680.0 16903.0
763.0 16903.0
860.0 16903.0
880.0 16903.0
1442.0 16903.0
842.0 16904.0
985.0 16904.0
1001.0 16904.0
1417.0 16904.0
951.0 16905.0
1165.0 16905.0
1404.0 16905.0
1442.0 16906.0
591.0 16907.0
763.0 16907.0
680.0 16908.0
1105.0 16908.0
1253.0 16908.0
736.0 16909.0
1442.0 16909.0
1016.0 16910.0
763.0 16911.0
1442.0 16912.0
680.0 16913.0
857.0 16913.0
456.0 16915.0
599.0 16915.0
763.0 16915.0
866.0 16915.0
949.0 16915.0
1442.0 16915.0
973.0 16916.0
991.0 16916.0
1226.0 16916.0
680.0 16918.0
714.0 16918.0
843.0 16918.0
1114.0 16918.0
1340.0 16918.0
1442.0 16918.0
347.0 16919.0
725.0 16919.0
763.0 16919.0
1222.0 16919.0
1251.0 16919.0
1254.0 16919.0
1337.0 16919.0
735.0 16920.0
852.0 16920.0
1012.0 16920.0
1038.0 16921.0
1390.0 16921.0
1423.0 16921.0
1442.0 16921.0
1068.0 16922.0
1156.0 16922.0
1172.0 16922.0
680.0 16923.0
763.0 16923.0
880.0 16924.0
1075.0 16924.0
1087.0 16924.0
1204.0 16924.0
1345.0 16924.0
1442.0 16924.0
950.0 16925.0
1001.0 16925.0
1088.0 16926.0
1404.0 16926.0
1418.0 16926.0
738.0 16927.0
763.0 16927.0
941.0 16927.0
1135.0 16927.0
1165.0 16927.0
1442.0 16927.0
680.0 16928.0
861.0 16928.0
1118.0 16928.0
866.0 16929.0
959.0 16929.0
1105.0 16929.0
1442.0 16930.0
763.0 16931.0
1417.0 16931.0
680.0 16932.0
842.0 16932.0
1253.0 16932.0
851.0 16933.0
860.0 16933.0
1016.0 16933.0
1442.0 16933.0
763.0 16935.0
841.0 16935.0
857.0 16935.0
680.0 16936.0
1225.0 16936.0
1243.0 16936.0
1442.0 16936.0
591.0 16937.0
949.0 16937.0
725.0 16938.0
991.0 16938.0
1226.0 16938.0
763.0 16939.0
1442.0 16939.0
680.0 16940.0
973.0 16940.0
1251.0 16940.0
714.0 16941.0
735.0 16941.0
1012.0 16941.0
1114.0 16941.0
1340.0 16941.0
736.0 16942.0
852.0 16942.0
866.0 16942.0
1038.0 16942.0
1222.0 16942.0
1337.0 16942.0
1390.0 16942.0
1442.0 16942.0
719.0 16943.0
763.0 16943.0
1156.0 16943.0
1172.0 16943.0
1254.0 16943.0
680.0 16944.0
456.0 16945.0
880.0 16945.0
1068.0 16945.0
1423.0 16945.0
1442.0 16945.0
599.0 16947.0
763.0 16947.0
1001.0 16947.0
1087.0 16947.0
1204.0 16947.0
1345.0 16947.0
1404.0 16947.0
680.0 16948.0
950.0 16948.0
1075.0 16948.0
1442.0 16948.0
843.0 16949.0
1088.0 16949.0
1105.0 16949.0
1418.0 16949.0
347.0 16950.0
738.0 16950.0
1165.0 16950.0
763.0 16951.0
941.0 16951.0
1115.0 16951.0
1118.0 16951.0
1135.0 16951.0
1442.0 16951.0
1446.0 16951.0
680.0 16952.0
959.0 16953.0
1355.0 16953.0
1442.0 16954.0
763.0 16955.0
857.0 16955.0
866.0 16955.0
1417.0 16955.0
680.0 16956.0
842.0 16956.0
1016.0 16956.0
1253.0 16956.0
860.0 16957.0
949.0 16957.0
1433.0 16957.0
1442.0 16957.0
725.0 16958.0
729.0 16958.0
991.0 16958.0
1226.0 16958.0
763.0 16959.0
861.0 16959.0
680.0 16960.0
735.0 16960.0
1442.0 16960.0
714.0 16961.0
973.0 16961.0
1251.0 16961.0
1340.0 16961.0
591.0 16962.0
852.0 16962.0
1012.0 16962.0
1038.0 16962.0
1114.0 16962.0
1390.0 16962.0
763.0 16963.0
1222.0 16963.0
1337.0 16963.0
1442.0 16963.0
680.0 16964.0
1156.0 16964.0
1172.0 16964.0
1254.0 16964.0
880.0 16965.0
1068.0 16966.0
1388.0 16966.0
1423.0 16966.0
1442.0 16966.0
763.0 16967.0
1001.0 16967.0
680.0 16968.0
841.0 16968.0
866.0 16968.0
1087.0 16968.0
1105.0 16968.0
1345.0 16968.0
1404.0 16968.0
950.0 16969.0
1174.0 16969.0
1204.0 16969.0
1442.0 16969.0
736.0 16970.0
1075.0 16970.0
763.0 16971.0
1088.0 16971.0
1418.0 16971.0
680.0 16972.0
738.0 16972.0
863.0 16972.0
1165.0 16972.0
1442.0 16972.0
456.0 16973.0
985.0 16973.0
1118.0 16973.0
857.0 16974.0
941.0 16974.0
1135.0 16974.0
599.0 16975.0
763.0 16975.0
959.0 16975.0
1263.0 16975.0
1442.0 16975.0
680.0 16976.0
949.0 16976.0
725.0 16977.0
843.0 16977.0
998.0 16977.0
991.0 16978.0
1226.0 16978.0
1442.0 16978.0
347.0 16979.0
735.0 16979.0
763.0 16979.0
1016.0 16979.0
1253.0 16979.0
1417.0 16979.0
680.0 16980.0
842.0 16980.0
965.0 16980.0
714.0 16981.0
860.0 16981.0
866.0 16981.0
973.0 16981.0
1251.0 16981.0
1340.0 16981.0
1442.0 16981.0
852.0 16982.0
1038.0 16982.0
1114.0 16982.0
1390.0 16982.0
763.0 16983.0
1012.0 16983.0
1257.0 16983.0
680.0 16984.0
851.0 16984.0
951.0 16984.0
1222.0 16984.0
1254.0 16984.0
1337.0 16984.0
1442.0 16984.0
880.0 16985.0
1156.0 16985.0
1172.0 16985.0
591.0 16986.0
1105.0 16986.0
1436.0 16986.0
763.0 16987.0
1068.0 16987.0
1423.0 16987.0
1442.0 16987.0
680.0 16988.0
1001.0 16988.0
1445.0 16988.0
1087.0 16989.0
1241.0 16989.0
1404.0 16989.0
1419.0 16989.0
1204.0 16990.0
1345.0 16990.0
1442.0 16990.0
763.0 16991.0
861.0 16991.0
950.0 16991.0
680.0 16992.0
857.0 16992.0
1075.0 16992.0
819.0 16993.0
1088.0 16993.0
1442.0 16993.0
738.0 16994.0
866.0 16994.0
1418.0 16994.0
736.0 16995.0
763.0 16995.0
1165.0 16995.0
680.0 16996.0
941.0 16996.0
949.0 16996.0
1118.0 16996.0
1442.0 16996.0
725.0 16998.0
959.0 16998.0
1135.0 16998.0
1226.0 16998.0
763.0 16999.0
991.0 16999.0
1442.0 16999.0
680.0 17000.0
735.0 17000.0
841.0 17000.0
456.0 17001.0
1251.0 17001.0
714.0 17002.0
852.0 17002.0
973.0 17002.0
1016.0 17002.0
1038.0 17002.0
1114.0 17002.0
1340.0 17002.0
1442.0 17002.0
599.0 17003.0
763.0 17003.0
1253.0 17003.0
1390.0 17003.0
1417.0 17003.0
680.0 17004.0
842.0 17004.0
1012.0 17004.0
860.0 17005.0
880.0 17005.0
1222.0 17005.0
1254.0 17005.0
1442.0 17005.0
1105.0 17006.0
1156.0 17006.0
1337.0 17006.0
347.0 17007.0
763.0 17007.0
843.0 17007.0
866.0 17007.0
1172.0 17007.0
680.0 17008.0
1068.0 17008.0
1423.0 17008.0
1442.0 17008.0
591.0 17010.0
857.0 17010.0
1001.0 17010.0
1404.0 17010.0
763.0 17011.0
1087.0 17011.0
1442.0 17011.0
680.0 17012.0
1204.0 17012.0
1345.0 17012.0
950.0 17013.0
1075.0 17014.0
1442.0 17014.0
763.0 17015.0
1088.0 17015.0
680.0 17016.0
738.0 17016.0
949.0 17016.0
1418.0 17016.0
725.0 17017.0
1442.0 17017.0
1118.0 17018.0
1165.0 17018.0
1226.0 17018.0
763.0 17019.0
941.0 17019.0
991.0 17019.0
680.0 17020.0
735.0 17020.0
866.0 17020.0
1442.0 17020.0
959.0 17021.0
1135.0 17021.0
714.0 17022.0
736.0 17022.0
852.0 17022.0
861.0 17022.0
973.0 17022.0
1251.0 17022.0
763.0 17023.0
1038.0 17023.0
1114.0 17023.0
1340.0 17023.0
1442.0 17023.0
680.0 17024.0
1390.0 17024.0
1012.0 17025.0
1016.0 17025.0
1105.0 17025.0
880.0 17026.0
1222.0 17026.0
1225.0 17026.0
1243.0 17026.0
1253.0 17026.0
1254.0 17026.0
1442.0 17026.0
763.0 17027.0
1156.0 17027.0
1337.0 17027.0
1417.0 17027.0
680.0 17028.0
842.0 17028.0
1172.0 17028.0
456.0 17029.0
857.0 17029.0
860.0 17029.0
1068.0 17029.0
1355.0 17029.0
1442.0 17029.0
599.0 17030.0
719.0 17030.0
1423.0 17030.0
763.0 17031.0
1404.0 17031.0
680.0 17032.0
1001.0 17032.0
1087.0 17032.0
1442.0 17032.0
866.0 17033.0
591.0 17034.0
1204.0 17034.0
1345.0 17034.0
347.0 17035.0
763.0 17035.0
841.0 17035.0
843.0 17035.0
950.0 17035.0
1115.0 17035.0
1442.0 17035.0
680.0 17036.0
949.0 17036.0
1075.0 17036.0
725.0 17037.0
851.0 17037.0
1088.0 17037.0
1226.0 17037.0
738.0 17038.0
1418.0 17038.0
1442.0 17038.0
735.0 17039.0
763.0 17039.0
991.0 17039.0
680.0 17040.0
1118.0 17040.0
1165.0 17040.0
852.0 17041.0
1442.0 17041.0
714.0 17042.0
763.0 17042.0
941.0 17042.0
973.0 17042.0
985.0 17042.0
1038.0 17043.0
1251.0 17043.0
1340.0 17043.0
680.0 17044.0
959.0 17044.0
1105.0 17044.0
1114.0 17044.0
1135.0 17044.0
1390.0 17044.0
1442.0 17044.0
1012.0 17045.0
763.0 17046.0
866.0 17046.0
880.0 17047.0
1156.0 17047.0
1222.0 17047.0
1254.0 17047.0
1442.0 17047.0
680.0 17048.0
736.0 17048.0
857.0 17048.0
1016.0 17048.0
1172.0 17048.0
1253.0 17048.0
1337.0 17048.0
763.0 17050.0
861.0 17050.0
1068.0 17050.0
1442.0 17050.0
1417.0 17051.0
1423.0 17051.0
680.0 17052.0
842.0 17052.0
860.0 17052.0
1404.0 17052.0
1433.0 17052.0
729.0 17053.0
1001.0 17053.0
1087.0 17053.0
1442.0 17053.0
763.0 17054.0
1446.0 17054.0
456.0 17056.0
680.0 17056.0
725.0 17056.0
949.0 17056.0
1204.0 17056.0
1345.0 17056.0
1439.0 17056.0
1442.0 17056.0
591.0 17057.0
599.0 17057.0
1226.0 17057.0
763.0 17058.0
950.0 17058.0
991.0 17058.0
1075.0 17058.0
735.0 17059.0
866.0 17059.0
1088.0 17059.0
1442.0 17059.0
680.0 17060.0
738.0 17060.0
1418.0 17060.0
763.0 17061.0
852.0 17061.0
1165.0 17061.0
347.0 17062.0
714.0 17062.0
973.0 17062.0
1118.0 17062.0
1251.0 17062.0
1442.0 17062.0
1038.0 17063.0
1105.0 17063.0
1340.0 17063.0
680.0 17064.0
843.0 17064.0
951.0 17064.0
1390.0 17064.0
763.0 17065.0
841.0 17065.0
941.0 17065.0
959.0 17065.0
1012.0 17065.0
1114.0 17065.0
1442.0 17065.0
857.0 17067.0
880.0 17067.0
1135.0 17067.0
1156.0 17067.0
1222.0 17067.0
680.0 17068.0
1172.0 17068.0
1236.0 17068.0
1254.0 17068.0
1442.0 17068.0
763.0 17069.0
1257.0 17069.0
1337.0 17069.0
1016.0 17070.0
1253.0 17070.0
1068.0 17071.0
1442.0 17071.0
680.0 17072.0
763.0 17072.0
866.0 17072.0
1423.0 17072.0
1001.0 17073.0
1404.0 17073.0
736.0 17074.0
860.0 17074.0
1087.0 17074.0
1442.0 17074.0
725.0 17075.0
1417.0 17075.0
680.0 17076.0
763.0 17076.0
842.0 17076.0
949.0 17076.0
1226.0 17077.0
1442.0 17077.0
735.0 17078.0
861.0 17078.0
991.0 17078.0
1204.0 17078.0
1345.0 17078.0
680.0 17080.0
763.0 17080.0
950.0 17080.0
1075.0 17080.0
1174.0 17080.0
1442.0 17080.0
591.0 17081.0
852.0 17081.0
1088.0 17081.0
1251.0 17081.0
456.0 17082.0
599.0 17082.0
714.0 17082.0
738.0 17082.0
973.0 17082.0
1105.0 17082.0
1165.0 17082.0
1418.0 17082.0
863.0 17083.0
1038.0 17083.0
1340.0 17083.0
1390.0 17083.0
1442.0 17083.0
680.0 17084.0
763.0 17084.0
866.0 17085.0
1012.0 17085.0
1118.0 17085.0
857.0 17086.0
1114.0 17086.0
1442.0 17086.0
763.0 17087.0
880.0 17087.0
1156.0 17087.0
1222.0 17087.0
347.0 17088.0
680.0 17088.0
851.0 17088.0
941.0 17088.0
959.0 17088.0
1172.0 17088.0
1254.0 17089.0
1442.0 17089.0
1135.0 17090.0
1337.0 17090.0
763.0 17091.0
843.0 17091.0
998.0 17091.0
1241.0 17091.0
1419.0 17091.0
680.0 17092.0
1068.0 17092.0
1253.0 17092.0
1442.0 17092.0
1001.0 17093.0
1016.0 17093.0
1404.0 17093.0
1423.0 17093.0
725.0 17094.0
763.0 17094.0
1355.0 17094.0
1087.0 17095.0
1442.0 17095.0
680.0 17096.0
841.0 17096.0
949.0 17096.0
860.0 17097.0
1226.0 17097.0
735.0 17098.0
736.0 17098.0
763.0 17098.0
866.0 17098.0
991.0 17098.0
1442.0 17098.0
1417.0 17099.0
680.0 17100.0
842.0 17100.0
1251.0 17100.0
763.0 17101.0
852.0 17101.0
1105.0 17101.0
1204.0 17101.0
1345.0 17101.0
1442.0 17101.0
714.0 17102.0
973.0 17102.0
1038.0 17102.0
1075.0 17102.0
1165.0 17102.0
1390.0 17102.0
950.0 17103.0
591.0 17104.0
680.0 17104.0
738.0 17104.0
763.0 17104.0
857.0 17104.0
1012.0 17104.0
1088.0 17104.0
1225.0 17104.0
1340.0 17104.0
1442.0 17104.0
861.0 17105.0
1418.0 17105.0
880.0 17106.0
1156.0 17106.0
456.0 17107.0
599.0 17107.0
763.0 17107.0
819.0 17107.0
1114.0 17107.0
1442.0 17107.0
680.0 17108.0
719.0 17108.0
1118.0 17108.0
1172.0 17108.0
1222.0 17108.0
763.0 17110.0
866.0 17110.0
959.0 17110.0
1254.0 17110.0
1442.0 17110.0
347.0 17111.0
725.0 17111.0
941.0 17111.0
1337.0 17111.0
680.0 17112.0
1001.0 17112.0
1404.0 17112.0
763.0 17113.0
1016.0 17113.0
1068.0 17113.0
1115.0 17113.0
1135.0 17113.0
1243.0 17113.0
1253.0 17113.0
1442.0 17113.0
1423.0 17114.0
735.0 17115.0
843.0 17115.0
949.0 17115.0
985.0 17115.0
680.0 17116.0
763.0 17116.0
1087.0 17116.0
1226.0 17116.0
1442.0 17116.0
860.0 17117.0
991.0 17118.0
1251.0 17118.0
736.0 17119.0
763.0 17119.0
1038.0 17119.0
1390.0 17119.0
1442.0 17119.0
680.0 17120.0
852.0 17120.0
1105.0 17120.0
1165.0 17120.0
1434.0 17120.0
866.0 17121.0
1012.0 17121.0
1445.0 17121.0
714.0 17122.0
763.0 17122.0
841.0 17122.0
973.0 17122.0
1204.0 17122.0
1345.0 17122.0
1442.0 17122.0
857.0 17123.0
880.0 17123.0
1156.0 17123.0
1417.0 17123.0
591.0 17124.0
680.0 17124.0
842.0 17124.0
950.0 17124.0
965.0 17124.0
1075.0 17124.0
1340.0 17124.0
763.0 17125.0
864.0 17125.0
1172.0 17125.0
1442.0 17125.0
738.0 17126.0
1088.0 17126.0
1148.0 17126.0
725.0 17127.0
861.0 17127.0
1114.0 17127.0
1418.0 17127.0
456.0 17128.0
680.0 17128.0
763.0 17128.0
1442.0 17128.0
599.0 17129.0
1001.0 17129.0
1222.0 17129.0
1404.0 17129.0
1118.0 17130.0
735.0 17131.0
744.0 17131.0
763.0 17131.0
1014.0 17131.0
1134.0 17131.0
1254.0 17131.0
1442.0 17131.0
347.0 17132.0
625.0 17132.0
680.0 17132.0
1016.0 17132.0
1253.0 17132.0
1337.0 17132.0
866.0 17133.0
951.0 17133.0
959.0 17133.0
1262.0 17133.0
763.0 17134.0
850.0 17134.0
1068.0 17134.0
1442.0 17134.0
941.0 17135.0
949.0 17135.0
1251.0 17135.0
1423.0 17135.0
680.0 17136.0
851.0 17136.0
860.0 17136.0
894.0 17136.0
1038.0 17136.0
1226.0 17136.0
1390.0 17136.0
726.0 17137.0
763.0 17137.0
843.0 17137.0
1087.0 17137.0
1135.0 17137.0
1442.0 17137.0
870.0 17138.0
991.0 17138.0
1012.0 17138.0
1105.0 17138.0
1165.0 17139.0
1436.0 17139.0
680.0 17140.0
763.0 17140.0
852.0 17140.0
880.0 17140.0
1442.0 17140.0
1446.0 17140.0
736.0 17141.0
1156.0 17141.0
714.0 17142.0
857.0 17142.0
973.0 17142.0
1172.0 17142.0
1415.0 17142.0
734.0 17143.0
763.0 17143.0
1442.0 17143.0
680.0 17144.0
725.0 17144.0
1204.0 17144.0
591.0 17145.0
612.0 17145.0
866.0 17145.0
1340.0 17145.0
1345.0 17145.0
763.0 17146.0
841.0 17146.0
950.0 17146.0
1075.0 17146.0
1404.0 17146.0
1442.0 17146.0
738.0 17147.0
842.0 17147.0
1001.0 17147.0
1417.0 17147.0
680.0 17148.0
1088.0 17148.0
1114.0 17148.0
456.0 17149.0
735.0 17149.0
763.0 17149.0
1442.0 17149.0
599.0 17150.0
861.0 17150.0
1018.0 17150.0
1222.0 17150.0
1253.0 17150.0
1418.0 17150.0
475.0 17151.0
1016.0 17151.0
680.0 17152.0
763.0 17152.0
1118.0 17152.0
1251.0 17152.0
1254.0 17152.0
1442.0 17152.0
347.0 17153.0
1038.0 17153.0
1337.0 17153.0
1390.0 17153.0
466.0 17154.0
763.0 17155.0
860.0 17155.0
949.0 17155.0
1012.0 17155.0
1068.0 17155.0
1355.0 17155.0
1442.0 17155.0
680.0 17156.0
1105.0 17156.0
1226.0 17156.0
1423.0 17156.0
866.0 17157.0
880.0 17157.0
959.0 17157.0
1257.0 17157.0
763.0 17158.0
991.0 17158.0
1156.0 17158.0
1165.0 17158.0
1442.0 17158.0
843.0 17159.0
941.0 17159.0
1087.0 17159.0
680.0 17160.0
725.0 17160.0
852.0 17160.0
1135.0 17160.0
1172.0 17160.0
763.0 17161.0
857.0 17161.0
1442.0 17161.0
714.0 17162.0
736.0 17162.0
889.0 17162.0
973.0 17162.0
241.0 17164.0
591.0 17164.0
680.0 17164.0
763.0 17164.0
1404.0 17164.0
1442.0 17164.0
729.0 17165.0
735.0 17165.0
1001.0 17165.0
1136.0 17165.0
1204.0 17166.0
1340.0 17166.0
478.0 17167.0
763.0 17167.0
1345.0 17167.0
1442.0 17167.0
680.0 17168.0
1075.0 17168.0
866.0 17169.0
950.0 17169.0
1114.0 17169.0
1251.0 17169.0
1253.0 17169.0
456.0 17170.0
738.0 17170.0
763.0 17170.0
841.0 17170.0
883.0 17170.0
1016.0 17170.0
1038.0 17170.0
1088.0 17170.0
1225.0 17170.0
1390.0 17170.0
1442.0 17170.0
334.0 17171.0
599.0 17171.0
762.0 17171.0
842.0 17171.0
863.0 17171.0
1222.0 17171.0
1417.0 17171.0
605.0 17172.0
680.0 17172.0
881.0 17172.0
1012.0 17172.0
1418.0 17172.0
719.0 17173.0
763.0 17173.0
861.0 17173.0
880.0 17173.0
1254.0 17173.0
1439.0 17173.0
1442.0 17173.0
347.0 17174.0
860.0 17174.0
949.0 17174.0
1118.0 17174.0
1337.0 17174.0
754.0 17175.0
1105.0 17175.0
1156.0 17175.0
235.0 17176.0
680.0 17176.0
725.0 17176.0
763.0 17176.0
1068.0 17176.0
1165.0 17176.0
1174.0 17176.0
1226.0 17176.0
1305.0 17176.0
1442.0 17176.0
985.0 17177.0
1172.0 17177.0
1423.0 17177.0
893.0 17178.0
991.0 17178.0
763.0 17179.0
857.0 17179.0
959.0 17179.0
1115.0 17179.0
1442.0 17179.0
680.0 17180.0
735.0 17180.0
843.0 17180.0
852.0 17180.0
866.0 17180.0
994.0 17180.0
851.0 17181.0
973.0 17181.0
1031.0 17181.0
1087.0 17181.0
1133.0 17181.0
1433.0 17181.0
714.0 17182.0
736.0 17182.0
763.0 17182.0
941.0 17182.0
1001.0 17182.0
1014.0 17182.0
1223.0 17182.0
1252.0 17182.0
1404.0 17182.0
1442.0 17182.0
366.0 17183.0
493.0 17183.0
1135.0 17183.0
591.0 17184.0
680.0 17184.0
1022.0 17184.0
1419.0 17184.0
763.0 17185.0
1251.0 17185.0
1442.0 17185.0
232.0 17186.0
886.0 17186.0
1038.0 17186.0
1148.0 17186.0
1340.0 17186.0
1390.0 17186.0
632.0 17187.0
1241.0 17187.0
1447.0 17187.0
680.0 17188.0
763.0 17188.0
1012.0 17188.0
1016.0 17188.0
1204.0 17188.0
1253.0 17188.0
1300.0 17188.0
1442.0 17188.0
613.0 17189.0
950.0 17190.0
1075.0 17190.0
1345.0 17190.0
383.0 17191.0
456.0 17191.0
763.0 17191.0
866.0 17191.0
880.0 17191.0
1114.0 17191.0
1222.0 17191.0
1442.0 17191.0
599.0 17192.0
680.0 17192.0
738.0 17192.0
1088.0 17192.0
1156.0 17192.0
725.0 17193.0
860.0 17193.0
949.0 17193.0
1105.0 17193.0
1271.0 17193.0
763.0 17194.0
841.0 17194.0
1165.0 17194.0
1172.0 17194.0
1254.0 17194.0
1418.0 17194.0
1442.0 17194.0
347.0 17195.0
842.0 17195.0
861.0 17195.0
1337.0 17195.0
1417.0 17195.0
601.0 17196.0
1226.0 17196.0
735.0 17197.0
763.0 17197.0
1068.0 17197.0
1243.0 17197.0
1442.0 17197.0
857.0 17198.0
991.0 17198.0
1118.0 17198.0
1423.0 17198.0
1001.0 17199.0
1404.0 17199.0
680.0 17200.0
852.0 17200.0
1381.0 17200.0
