763.0 17406.0
1442.0 17406.0
680.0 17407.0
763.0 17410.0
1442.0 17410.0
680.0 17412.0
763.0 17413.0
1442.0 17414.0
680.0 17416.0
763.0 17417.0
1442.0 17417.0
680.0 17420.0
763.0 17420.0
1442.0 17421.0
680.0 17424.0
763.0 17424.0
1442.0 17424.0
763.0 17427.0
866.0 17427.0
680.0 17428.0
1442.0 17428.0
763.0 17430.0
1442.0 17431.0
680.0 17432.0
763.0 17433.0
1012.0 17434.0
1156.0 17434.0
1172.0 17434.0
1442.0 17434.0
735.0 17435.0
1001.0 17435.0
1038.0 17435.0
1165.0 17435.0
1251.0 17435.0
1253.0 17435.0
1390.0 17435.0
680.0 17436.0
763.0 17436.0
1404.0 17436.0
725.0 17437.0
736.0 17437.0
860.0 17437.0
880.0 17437.0
1016.0 17437.0
1442.0 17437.0
347.0 17438.0
591.0 17438.0
599.0 17438.0
861.0 17438.0
973.0 17438.0
991.0 17438.0
1105.0 17438.0
1114.0 17438.0
1226.0 17438.0
1254.0 17438.0
1337.0 17438.0
1340.0 17438.0
1345.0 17438.0
1423.0 17438.0
456.0 17439.0
763.0 17439.0
841.0 17439.0
842.0 17439.0
843.0 17439.0
857.0 17439.0
950.0 17439.0
959.0 17439.0
1068.0 17439.0
1088.0 17439.0
1118.0 17439.0
1222.0 17439.0
1418.0 17439.0
680.0 17440.0
714.0 17440.0
852.0 17440.0
866.0 17440.0
941.0 17440.0
949.0 17440.0
1075.0 17440.0
1087.0 17440.0
1135.0 17440.0
1204.0 17440.0
1442.0 17440.0
738.0 17441.0
1417.0 17441.0
763.0 17442.0
1442.0 17443.0
680.0 17444.0
763.0 17445.0
1442.0 17446.0
680.0 17448.0
763.0 17448.0
1442.0 17449.0
763.0 17451.0
866.0 17451.0
1012.0 17451.0
680.0 17452.0
735.0 17452.0
1038.0 17452.0
1156.0 17452.0
1172.0 17452.0
1251.0 17452.0
1390.0 17452.0
1442.0 17452.0
725.0 17453.0
1001.0 17453.0
1165.0 17453.0
763.0 17454.0
880.0 17454.0
1253.0 17454.0
1404.0 17454.0
1442.0 17455.0
680.0 17456.0
860.0 17456.0
1016.0 17456.0
591.0 17457.0
763.0 17457.0
1105.0 17457.0
736.0 17458.0
857.0 17458.0
973.0 17458.0
991.0 17458.0
1114.0 17458.0
1226.0 17458.0
1442.0 17458.0
347.0 17459.0
599.0 17459.0
1254.0 17459.0
1337.0 17459.0
1340.0 17459.0
1423.0 17459.0
456.0 17460.0
680.0 17460.0
714.0 17460.0
763.0 17460.0
949.0 17460.0
1222.0 17460.0
1345.0 17460.0
843.0 17461.0
852.0 17461.0
861.0 17461.0
950.0 17461.0
1068.0 17461.0
1088.0 17461.0
1118.0 17461.0
866.0 17462.0
959.0 17462.0
1075.0 17462.0
1087.0 17462.0
1204.0 17462.0
1418.0 17462.0
1442.0 17462.0
738.0 17463.0
763.0 17463.0
841.0 17463.0
842.0 17463.0
941.0 17463.0
1135.0 17463.0
680.0 17464.0
763.0 17466.0
1417.0 17466.0
1442.0 17466.0
680.0 17468.0
735.0 17468.0
725.0 17469.0
763.0 17469.0
1012.0 17469.0
1038.0 17469.0
1156.0 17470.0
1172.0 17470.0
1251.0 17470.0
1390.0 17470.0
1442.0 17470.0
680.0 17472.0
763.0 17472.0
880.0 17472.0
1001.0 17472.0
1165.0 17472.0
1404.0 17473.0
1442.0 17473.0
763.0 17475.0
860.0 17475.0
866.0 17475.0
1253.0 17475.0
680.0 17476.0
591.0 17477.0
1016.0 17477.0
1442.0 17477.0
736.0 17478.0
763.0 17478.0
1105.0 17478.0
599.0 17479.0
857.0 17479.0
347.0 17480.0
680.0 17480.0
456.0 17481.0
763.0 17481.0
973.0 17481.0
991.0 17481.0
1226.0 17481.0
1442.0 17481.0
894.0 17482.0
1114.0 17482.0
714.0 17483.0
843.0 17483.0
861.0 17483.0
680.0 17484.0
763.0 17484.0
852.0 17484.0
949.0 17484.0
1337.0 17484.0
1340.0 17484.0
1442.0 17484.0
1014.0 17485.0
1222.0 17485.0
1254.0 17485.0
1423.0 17485.0
1345.0 17486.0
735.0 17487.0
763.0 17487.0
841.0 17487.0
866.0 17487.0
950.0 17487.0
1068.0 17487.0
1088.0 17487.0
625.0 17488.0
680.0 17488.0
725.0 17488.0
870.0 17488.0
1012.0 17488.0
1038.0 17488.0
1075.0 17488.0
1087.0 17488.0
1118.0 17488.0
1442.0 17488.0
959.0 17489.0
1156.0 17489.0
1204.0 17489.0
1251.0 17489.0
1390.0 17489.0
1418.0 17489.0
738.0 17490.0
763.0 17490.0
1172.0 17490.0
880.0 17491.0
941.0 17491.0
1018.0 17491.0
1135.0 17491.0
680.0 17492.0
842.0 17492.0
1001.0 17492.0
1442.0 17492.0
612.0 17493.0
763.0 17493.0
1165.0 17493.0
1404.0 17493.0
860.0 17494.0
1417.0 17494.0
591.0 17496.0
680.0 17496.0
763.0 17496.0
1442.0 17496.0
1253.0 17497.0
1134.0 17498.0
866.0 17499.0
1016.0 17499.0
1031.0 17499.0
599.0 17500.0
680.0 17500.0
736.0 17500.0
763.0 17500.0
1105.0 17500.0
1442.0 17500.0
347.0 17501.0
456.0 17502.0
857.0 17502.0
1442.0 17503.0
680.0 17504.0
763.0 17504.0
843.0 17506.0
861.0 17506.0
973.0 17506.0
991.0 17506.0
1226.0 17506.0
714.0 17507.0
725.0 17507.0
1442.0 17507.0
680.0 17508.0
735.0 17508.0
763.0 17508.0
852.0 17508.0
1038.0 17508.0
949.0 17509.0
1114.0 17509.0
1251.0 17510.0
1337.0 17510.0
1340.0 17510.0
1390.0 17510.0
1012.0 17511.0
1222.0 17511.0
1254.0 17511.0
1423.0 17511.0
1442.0 17511.0
680.0 17512.0
763.0 17512.0
866.0 17512.0
1156.0 17512.0
1172.0 17512.0
841.0 17513.0
880.0 17513.0
950.0 17513.0
1068.0 17513.0
1345.0 17513.0
1001.0 17515.0
1087.0 17515.0
1088.0 17515.0
1442.0 17515.0
680.0 17516.0
763.0 17516.0
1075.0 17516.0
1418.0 17516.0
860.0 17517.0
959.0 17517.0
1118.0 17517.0
1204.0 17517.0
1404.0 17517.0
738.0 17518.0
1165.0 17519.0
1442.0 17519.0
591.0 17520.0
680.0 17520.0
763.0 17520.0
941.0 17520.0
1135.0 17520.0
842.0 17523.0
1105.0 17523.0
1417.0 17523.0
1442.0 17523.0
680.0 17524.0
763.0 17524.0
599.0 17526.0
857.0 17526.0
1253.0 17526.0
736.0 17527.0
866.0 17527.0
1442.0 17527.0
347.0 17528.0
680.0 17528.0
763.0 17528.0
1016.0 17528.0
456.0 17530.0
725.0 17530.0
991.0 17531.0
1442.0 17531.0
680.0 17532.0
763.0 17532.0
973.0 17532.0
1226.0 17532.0
714.0 17533.0
735.0 17533.0
1038.0 17533.0
852.0 17534.0
949.0 17534.0
843.0 17535.0
1442.0 17535.0
680.0 17536.0
763.0 17536.0
861.0 17536.0
1251.0 17536.0
1114.0 17537.0
1222.0 17538.0
1337.0 17538.0
1340.0 17538.0
1390.0 17538.0
880.0 17539.0
1012.0 17539.0
1254.0 17539.0
1423.0 17539.0
1442.0 17539.0
680.0 17540.0
763.0 17540.0
1156.0 17540.0
1172.0 17540.0
866.0 17541.0
950.0 17541.0
1068.0 17541.0
1345.0 17541.0
860.0 17542.0
1001.0 17543.0
1442.0 17543.0
680.0 17544.0
763.0 17544.0
1087.0 17544.0
1088.0 17544.0
591.0 17545.0
1075.0 17545.0
1418.0 17545.0
841.0 17546.0
1204.0 17546.0
1404.0 17546.0
738.0 17547.0
1105.0 17547.0
1118.0 17547.0
1442.0 17547.0
680.0 17548.0
763.0 17548.0
959.0 17548.0
1165.0 17548.0
941.0 17550.0
1135.0 17550.0
857.0 17551.0
1442.0 17551.0
680.0 17552.0
763.0 17552.0
599.0 17553.0
725.0 17555.0
736.0 17555.0
842.0 17555.0
1417.0 17555.0
1442.0 17555.0
347.0 17556.0
680.0 17556.0
763.0 17556.0
866.0 17556.0
991.0 17557.0
1253.0 17557.0
456.0 17558.0
714.0 17558.0
735.0 17558.0
973.0 17559.0
1016.0 17559.0
1038.0 17559.0
1226.0 17559.0
1442.0 17559.0
680.0 17560.0
763.0 17560.0
949.0 17560.0
852.0 17561.0
1251.0 17563.0
1442.0 17563.0
680.0 17564.0
763.0 17564.0
843.0 17564.0
861.0 17565.0
1114.0 17565.0
860.0 17566.0
880.0 17566.0
1222.0 17566.0
1337.0 17566.0
1340.0 17566.0
1390.0 17566.0
1012.0 17567.0
1254.0 17567.0
1423.0 17567.0
1442.0 17567.0
680.0 17568.0
1156.0 17568.0
1172.0 17568.0
763.0 17569.0
950.0 17569.0
1068.0 17569.0
591.0 17570.0
866.0 17570.0
1345.0 17570.0
1001.0 17571.0
1105.0 17571.0
1442.0 17571.0
680.0 17572.0
1087.0 17572.0
763.0 17573.0
1088.0 17573.0
1075.0 17574.0
1418.0 17574.0
1204.0 17575.0
1404.0 17575.0
1442.0 17575.0
680.0 17576.0
738.0 17576.0
857.0 17576.0
1118.0 17577.0
763.0 17578.0
959.0 17578.0
841.0 17579.0
1442.0 17579.0
680.0 17580.0
941.0 17580.0
1165.0 17580.0
599.0 17582.0
725.0 17582.0
1135.0 17582.0
991.0 17583.0
1442.0 17583.0
680.0 17584.0
714.0 17584.0
763.0 17584.0
735.0 17585.0
949.0 17585.0
973.0 17585.0
1226.0 17585.0
866.0 17586.0
736.0 17587.0
1417.0 17587.0
1442.0 17587.0
347.0 17588.0
680.0 17588.0
842.0 17588.0
852.0 17588.0
1038.0 17589.0
763.0 17590.0
1114.0 17590.0
456.0 17591.0
1442.0 17591.0
680.0 17592.0
1222.0 17594.0
1337.0 17594.0
1340.0 17594.0
1253.0 17595.0
1254.0 17595.0
1423.0 17595.0
1442.0 17595.0
680.0 17596.0
763.0 17596.0
1105.0 17596.0
860.0 17597.0
950.0 17597.0
1068.0 17597.0
1251.0 17597.0
1016.0 17598.0
1345.0 17598.0
1442.0 17599.0
680.0 17600.0
857.0 17601.0
1087.0 17601.0
591.0 17602.0
763.0 17602.0
866.0 17602.0
880.0 17602.0
1390.0 17602.0
843.0 17603.0
1088.0 17603.0
1418.0 17603.0
1442.0 17603.0
680.0 17604.0
1075.0 17604.0
1204.0 17604.0
738.0 17605.0
1012.0 17605.0
1118.0 17606.0
1156.0 17607.0
1172.0 17607.0
1442.0 17607.0
680.0 17608.0
763.0 17608.0
959.0 17608.0
991.0 17609.0
949.0 17610.0
714.0 17611.0
941.0 17611.0
1442.0 17611.0
680.0 17612.0
973.0 17612.0
1226.0 17612.0
861.0 17613.0
763.0 17614.0
852.0 17614.0
1135.0 17614.0
1001.0 17615.0
1442.0 17615.0
680.0 17616.0
1404.0 17616.0
1114.0 17617.0
1417.0 17619.0
1442.0 17619.0
680.0 17620.0
725.0 17620.0
763.0 17620.0
842.0 17620.0
866.0 17620.0
1105.0 17621.0
1222.0 17621.0
1337.0 17622.0
1340.0 17622.0
1254.0 17623.0
1423.0 17623.0
1442.0 17623.0
680.0 17624.0
599.0 17625.0
1068.0 17625.0
1165.0 17625.0
735.0 17626.0
763.0 17626.0
857.0 17626.0
1345.0 17626.0
950.0 17627.0
1442.0 17627.0
680.0 17628.0
1038.0 17629.0
1087.0 17629.0
736.0 17630.0
860.0 17631.0
1418.0 17631.0
1442.0 17631.0
347.0 17632.0
680.0 17632.0
763.0 17632.0
1075.0 17633.0
1088.0 17633.0
1204.0 17633.0
738.0 17634.0
991.0 17635.0
1118.0 17635.0
1442.0 17635.0
680.0 17636.0
866.0 17637.0
949.0 17637.0
959.0 17637.0
456.0 17638.0
714.0 17638.0
1251.0 17638.0
763.0 17639.0
841.0 17639.0
973.0 17639.0
1442.0 17639.0
591.0 17640.0
680.0 17640.0
1226.0 17640.0
852.0 17641.0
941.0 17642.0
1442.0 17643.0
680.0 17644.0
1114.0 17645.0
880.0 17646.0
1105.0 17646.0
1135.0 17646.0
1390.0 17646.0
763.0 17647.0
1442.0 17647.0
680.0 17648.0
1222.0 17648.0
1337.0 17650.0
1340.0 17650.0
857.0 17651.0
1254.0 17651.0
1417.0 17651.0
1423.0 17651.0
1442.0 17651.0
680.0 17652.0
842.0 17652.0
1012.0 17652.0
1068.0 17653.0
1172.0 17653.0
1345.0 17654.0
763.0 17655.0
843.0 17655.0
1442.0 17655.0
680.0 17656.0
866.0 17656.0
950.0 17656.0
1087.0 17659.0
1418.0 17659.0
1442.0 17659.0
680.0 17660.0
1156.0 17660.0
991.0 17661.0
1075.0 17662.0
1204.0 17662.0
738.0 17663.0
763.0 17663.0
1442.0 17663.0
680.0 17664.0
949.0 17664.0
1088.0 17664.0
1118.0 17665.0
714.0 17666.0
973.0 17667.0
1442.0 17667.0
680.0 17668.0
852.0 17668.0
959.0 17668.0
1226.0 17668.0
725.0 17670.0
763.0 17671.0
1442.0 17671.0
680.0 17672.0
1105.0 17672.0
941.0 17673.0
1114.0 17673.0
1222.0 17675.0
1442.0 17675.0
680.0 17676.0
857.0 17676.0
860.0 17676.0
866.0 17676.0
1135.0 17678.0
1337.0 17678.0
1340.0 17678.0
763.0 17679.0
1423.0 17679.0
1442.0 17679.0
680.0 17680.0
1254.0 17680.0
1068.0 17681.0
1345.0 17682.0
1417.0 17683.0
1442.0 17683.0
680.0 17684.0
842.0 17684.0
599.0 17685.0
763.0 17687.0
950.0 17687.0
991.0 17687.0
1442.0 17687.0
591.0 17688.0
680.0 17688.0
1087.0 17688.0
1404.0 17688.0
1418.0 17688.0
949.0 17691.0
1038.0 17691.0
1442.0 17691.0
680.0 17692.0
1075.0 17692.0
1204.0 17692.0
735.0 17693.0
738.0 17693.0
973.0 17693.0
714.0 17694.0
763.0 17695.0
866.0 17695.0
1088.0 17695.0
1118.0 17695.0
1442.0 17695.0
680.0 17696.0
852.0 17696.0
1226.0 17696.0
959.0 17697.0
1105.0 17699.0
1442.0 17699.0
680.0 17700.0
1001.0 17700.0
1114.0 17701.0
857.0 17702.0
1442.0 17702.0
763.0 17703.0
1222.0 17703.0
680.0 17704.0
941.0 17704.0
1251.0 17705.0
1337.0 17705.0
1340.0 17705.0
1423.0 17706.0
1442.0 17706.0
736.0 17707.0
1012.0 17707.0
1135.0 17707.0
1165.0 17707.0
680.0 17708.0
1068.0 17708.0
1254.0 17708.0
1345.0 17708.0
763.0 17709.0
1253.0 17709.0
1390.0 17710.0
1442.0 17710.0
1016.0 17711.0
1172.0 17711.0
680.0 17712.0
880.0 17712.0
991.0 17713.0
347.0 17714.0
861.0 17714.0
866.0 17714.0
1417.0 17714.0
1442.0 17714.0
763.0 17715.0
842.0 17715.0
1156.0 17715.0
1418.0 17715.0
456.0 17716.0
680.0 17716.0
725.0 17716.0
949.0 17716.0
950.0 17716.0
1087.0 17716.0
843.0 17717.0
1442.0 17718.0
860.0 17719.0
973.0 17719.0
680.0 17720.0
714.0 17720.0
1075.0 17720.0
763.0 17721.0
1204.0 17721.0
1442.0 17721.0
738.0 17722.0
852.0 17722.0
1226.0 17722.0
1105.0 17723.0
680.0 17724.0
1088.0 17724.0
1118.0 17724.0
1442.0 17725.0
857.0 17726.0
959.0 17726.0
763.0 17727.0
1114.0 17727.0
591.0 17728.0
680.0 17728.0
841.0 17729.0
1222.0 17729.0
1442.0 17729.0
599.0 17731.0
735.0 17731.0
866.0 17731.0
1337.0 17731.0
680.0 17732.0
1038.0 17732.0
1340.0 17732.0
1442.0 17732.0
763.0 17733.0
941.0 17733.0
1423.0 17733.0
1345.0 17734.0
1404.0 17734.0
1068.0 17735.0
1135.0 17735.0
1254.0 17735.0
680.0 17736.0
1442.0 17736.0
991.0 17737.0
763.0 17739.0
680.0 17740.0
949.0 17740.0
1442.0 17740.0
1001.0 17741.0
1418.0 17742.0
950.0 17743.0
1087.0 17743.0
680.0 17744.0
973.0 17744.0
1012.0 17744.0
1417.0 17744.0
1442.0 17744.0
714.0 17745.0
763.0 17745.0
842.0 17745.0
1105.0 17746.0
1251.0 17746.0
866.0 17747.0
680.0 17748.0
852.0 17748.0
1075.0 17748.0
1226.0 17748.0
1442.0 17748.0
1165.0 17749.0
1172.0 17749.0
1204.0 17749.0
736.0 17750.0
738.0 17750.0
725.0 17751.0
763.0 17751.0
857.0 17751.0
1390.0 17751.0
1442.0 17751.0
680.0 17752.0
880.0 17752.0
1088.0 17752.0
1118.0 17753.0
860.0 17754.0
959.0 17754.0
1114.0 17754.0
1156.0 17755.0
1222.0 17755.0
1442.0 17755.0
680.0 17756.0
1253.0 17756.0
763.0 17757.0
1016.0 17757.0
1337.0 17758.0
1340.0 17758.0
456.0 17759.0
1423.0 17759.0
1442.0 17759.0
680.0 17760.0
1068.0 17761.0
1345.0 17761.0
347.0 17762.0
861.0 17762.0
941.0 17762.0
991.0 17762.0
1254.0 17762.0
1442.0 17762.0
763.0 17763.0
843.0 17763.0
591.0 17764.0
680.0 17764.0
866.0 17764.0
949.0 17764.0
1135.0 17764.0
1442.0 17766.0
735.0 17767.0
680.0 17768.0
763.0 17768.0
973.0 17768.0
1038.0 17768.0
1087.0 17769.0
1105.0 17769.0
1418.0 17770.0
1442.0 17770.0
714.0 17771.0
950.0 17771.0
680.0 17772.0
852.0 17772.0
1404.0 17772.0
599.0 17773.0
763.0 17773.0
1226.0 17773.0
857.0 17774.0
1417.0 17774.0
1442.0 17774.0
842.0 17775.0
680.0 17776.0
1075.0 17776.0
1204.0 17776.0
738.0 17778.0
763.0 17778.0
1001.0 17778.0
1442.0 17778.0
1088.0 17779.0
680.0 17780.0
841.0 17780.0
866.0 17780.0
1012.0 17780.0
1114.0 17781.0
1118.0 17781.0
1251.0 17781.0
1442.0 17781.0
959.0 17782.0
1222.0 17782.0
763.0 17783.0
1172.0 17783.0
680.0 17784.0
725.0 17784.0
1337.0 17784.0
1340.0 17784.0
860.0 17785.0
1390.0 17785.0
1442.0 17785.0
991.0 17786.0
1165.0 17786.0
1423.0 17786.0
736.0 17787.0
880.0 17787.0
1068.0 17787.0
1345.0 17787.0
680.0 17788.0
763.0 17788.0
949.0 17788.0
1254.0 17788.0
1442.0 17788.0
1156.0 17789.0
941.0 17791.0
680.0 17792.0
763.0 17792.0
973.0 17792.0
1105.0 17792.0
1135.0 17792.0
1442.0 17792.0
1253.0 17793.0
591.0 17794.0
1016.0 17794.0
456.0 17795.0
714.0 17795.0
866.0 17795.0
680.0 17796.0
735.0 17796.0
1087.0 17796.0
1442.0 17796.0
852.0 17797.0
857.0 17797.0
1038.0 17797.0
1418.0 17797.0
347.0 17798.0
1226.0 17798.0
843.0 17799.0
950.0 17799.0
