14.0 18659.0
14.0 18702.0
14.0 18737.0
14.0 18765.0
14.0 18790.0
14.0 18815.0
14.0 18840.0
14.0 18865.0
14.0 18890.0
14.0 18916.0
14.0 18945.0
14.0 18973.0
26.0 18609.0
26.0 18615.0
26.0 18621.0
26.0 18627.0
26.0 18633.0
26.0 18639.0
26.0 18645.0
26.0 18651.0
26.0 18657.0
26.0 18663.0
26.0 18669.0
26.0 18675.0
26.0 18681.0
26.0 18687.0
26.0 18693.0
26.0 18699.0
26.0 18705.0
26.0 18711.0
26.0 18717.0
26.0 18722.0
26.0 18727.0
26.0 18732.0
26.0 18737.0
26.0 18742.0
26.0 18747.0
26.0 18752.0
26.0 18757.0
26.0 18762.0
26.0 18767.0
26.0 18772.0
26.0 18777.0
26.0 18782.0
26.0 18787.0
26.0 18792.0
26.0 18797.0
26.0 18802.0
26.0 18807.0
26.0 18812.0
26.0 18817.0
26.0 18822.0
26.0 18827.0
26.0 18832.0
26.0 18837.0
26.0 18842.0
26.0 18847.0
26.0 18852.0
26.0 18857.0
26.0 18862.0
26.0 18867.0
26.0 18872.0
26.0 18877.0
26.0 18882.0
26.0 18887.0
26.0 18892.0
26.0 18897.0
26.0 18902.0
26.0 18907.0
26.0 18913.0
26.0 18919.0
26.0 18925.0
26.0 18931.0
26.0 18937.0
26.0 18943.0
26.0 18949.0
26.0 18955.0
26.0 18961.0
26.0 18967.0
26.0 18973.0
26.0 18979.0
26.0 18985.0
26.0 18991.0
62.0 18658.0
62.0 18705.0
62.0 18739.0
62.0 18767.0
62.0 18792.0
62.0 18817.0
62.0 18842.0
62.0 18867.0
62.0 18892.0
62.0 18918.0
62.0 18945.0
62.0 18972.0
62.0 18999.0
87.0 18665.0
87.0 18714.0
87.0 18749.0
87.0 18778.0
87.0 18805.0
87.0 18832.0
87.0 18859.0
87.0 18886.0
87.0 18913.0
87.0 18944.0
87.0 18975.0
157.0 18661.0
157.0 18706.0
157.0 18742.0
157.0 18769.0
157.0 18794.0
157.0 18818.0
157.0 18843.0
157.0 18868.0
157.0 18894.0
157.0 18919.0
157.0 18948.0
157.0 18976.0
159.0 18658.0
159.0 18701.0
159.0 18738.0
159.0 18765.0
159.0 18790.0
159.0 18815.0
159.0 18840.0
159.0 18865.0
159.0 18890.0
159.0 18914.0
159.0 18943.0
159.0 18973.0
165.0 18669.0
165.0 18722.0
165.0 18757.0
165.0 18785.0
165.0 18813.0
165.0 18840.0
165.0 18868.0
165.0 18897.0
165.0 18927.0
165.0 18960.0
165.0 18991.0
166.0 18658.0
166.0 18702.0
166.0 18737.0
166.0 18765.0
166.0 18789.0
166.0 18813.0
166.0 18838.0
166.0 18863.0
166.0 18888.0
166.0 18912.0
166.0 18939.0
166.0 18967.0
166.0 18996.0
167.0 18664.0
167.0 18712.0
167.0 18748.0
167.0 18775.0
167.0 18801.0
167.0 18827.0
167.0 18853.0
167.0 18878.0
167.0 18903.0
167.0 18931.0
167.0 18960.0
167.0 18990.0
185.0 18661.0
185.0 18709.0
185.0 18742.0
185.0 18770.0
185.0 18795.0
185.0 18819.0
185.0 18845.0
185.0 18870.0
185.0 18895.0
185.0 18921.0
185.0 18949.0
185.0 18977.0
286.0 18660.0
286.0 18705.0
286.0 18742.0
286.0 18769.0
286.0 18794.0
286.0 18818.0
286.0 18843.0
286.0 18868.0
286.0 18894.0
286.0 18920.0
286.0 18950.0
286.0 18980.0
296.0 18663.0
296.0 18707.0
296.0 18741.0
296.0 18767.0
296.0 18792.0
296.0 18815.0
296.0 18839.0
296.0 18863.0
296.0 18887.0
296.0 18910.0
296.0 18937.0
296.0 18966.0
296.0 18993.0
297.0 18847.0
303.0 18656.0
303.0 18694.0
303.0 18728.0
303.0 18757.0
303.0 18780.0
303.0 18803.0
303.0 18827.0
303.0 18850.0
303.0 18874.0
303.0 18898.0
303.0 18924.0
303.0 18950.0
303.0 18977.0
306.0 18661.0
306.0 18705.0
306.0 18741.0
306.0 18768.0
306.0 18792.0
306.0 18815.0
306.0 18839.0
306.0 18863.0
306.0 18887.0
306.0 18911.0
306.0 18938.0
306.0 18965.0
306.0 18992.0
347.0 18638.0
347.0 18663.0
347.0 18685.0
347.0 18710.0
347.0 18730.0
347.0 18750.0
347.0 18769.0
347.0 18792.0
347.0 18815.0
347.0 18838.0
347.0 18862.0
347.0 18886.0
347.0 18910.0
347.0 18936.0
347.0 18964.0
347.0 18991.0
426.0 18819.0
428.0 18666.0
428.0 18713.0
428.0 18748.0
428.0 18775.0
428.0 18801.0
428.0 18828.0
428.0 18855.0
428.0 18882.0
428.0 18909.0
428.0 18939.0
428.0 18970.0
428.0 19000.0
434.0 18662.0
434.0 18710.0
434.0 18743.0
434.0 18771.0
434.0 18797.0
434.0 18822.0
434.0 18848.0
434.0 18874.0
434.0 18899.0
434.0 18925.0
434.0 18954.0
434.0 18984.0
435.0 18662.0
435.0 18705.0
435.0 18742.0
435.0 18769.0
435.0 18794.0
435.0 18819.0
435.0 18845.0
435.0 18869.0
435.0 18894.0
435.0 18920.0
435.0 18948.0
435.0 18978.0
445.0 18807.0
450.0 18656.0
450.0 18699.0
450.0 18735.0
450.0 18762.0
450.0 18787.0
450.0 18812.0
450.0 18837.0
450.0 18862.0
450.0 18887.0
450.0 18912.0
450.0 18940.0
450.0 18968.0
450.0 18996.0
456.0 18716.0
456.0 18768.0
477.0 18663.0
477.0 18710.0
477.0 18743.0
477.0 18771.0
477.0 18796.0
477.0 18821.0
477.0 18846.0
477.0 18871.0
477.0 18896.0
477.0 18923.0
477.0 18953.0
477.0 18982.0
558.0 18663.0
558.0 18706.0
558.0 18739.0
558.0 18765.0
558.0 18789.0
558.0 18813.0
558.0 18837.0
558.0 18861.0
558.0 18885.0
558.0 18909.0
558.0 18935.0
558.0 18961.0
558.0 18988.0
580.0 18664.0
580.0 18714.0
580.0 18749.0
580.0 18777.0
580.0 18803.0
580.0 18829.0
580.0 18856.0
580.0 18883.0
580.0 18910.0
580.0 18940.0
580.0 18970.0
580.0 19000.0
591.0 18673.0
591.0 18724.0
591.0 18764.0
599.0 18638.0
599.0 18664.0
599.0 18689.0
599.0 18713.0
599.0 18735.0
599.0 18756.0
599.0 18775.0
599.0 18798.0
599.0 18822.0
599.0 18847.0
599.0 18872.0
599.0 18897.0
599.0 18922.0
599.0 18949.0
599.0 18978.0
607.0 18663.0
607.0 18710.0
607.0 18743.0
607.0 18769.0
607.0 18794.0
607.0 18818.0
607.0 18842.0
607.0 18867.0
607.0 18892.0
607.0 18918.0
607.0 18946.0
607.0 18974.0
679.0 18959.0
680.0 18607.0
680.0 18612.0
680.0 18616.0
680.0 18620.0
680.0 18624.0
680.0 18628.0
680.0 18632.0
680.0 18636.0
680.0 18640.0
680.0 18644.0
680.0 18648.0
680.0 18652.0
680.0 18656.0
680.0 18660.0
680.0 18664.0
680.0 18668.0
680.0 18672.0
680.0 18676.0
680.0 18680.0
680.0 18684.0
680.0 18688.0
680.0 18692.0
680.0 18696.0
680.0 18700.0
680.0 18704.0
680.0 18708.0
680.0 18711.0
680.0 18715.0
680.0 18719.0
680.0 18722.0
680.0 18726.0
680.0 18730.0
680.0 18734.0
680.0 18737.0
680.0 18741.0
680.0 18744.0
680.0 18748.0
680.0 18751.0
680.0 18754.0
680.0 18757.0
680.0 18760.0
680.0 18763.0
680.0 18766.0
680.0 18769.0
680.0 18772.0
680.0 18775.0
680.0 18778.0
680.0 18781.0
680.0 18784.0
680.0 18787.0
680.0 18790.0
680.0 18793.0
680.0 18796.0
680.0 18799.0
680.0 18802.0
680.0 18805.0
680.0 18808.0
680.0 18811.0
680.0 18814.0
680.0 18817.0
680.0 18820.0
680.0 18823.0
680.0 18826.0
680.0 18829.0
680.0 18832.0
680.0 18835.0
680.0 18838.0
680.0 18841.0
680.0 18844.0
680.0 18847.0
680.0 18850.0
680.0 18853.0
680.0 18856.0
680.0 18859.0
680.0 18862.0
680.0 18865.0
680.0 18868.0
680.0 18871.0
680.0 18874.0
680.0 18877.0
680.0 18880.0
680.0 18883.0
680.0 18886.0
680.0 18889.0
680.0 18892.0
680.0 18895.0
680.0 18898.0
680.0 18901.0
680.0 18904.0
680.0 18907.0
680.0 18910.0
680.0 18913.0
680.0 18916.0
680.0 18919.0
680.0 18922.0
680.0 18925.0
680.0 18928.0
680.0 18931.0
680.0 18934.0
680.0 18937.0
680.0 18940.0
680.0 18943.0
680.0 18946.0
680.0 18949.0
680.0 18952.0
680.0 18955.0
680.0 18958.0
680.0 18961.0
680.0 18964.0
680.0 18967.0
680.0 18970.0
680.0 18973.0
680.0 18976.0
680.0 18979.0
680.0 18982.0
680.0 18985.0
680.0 18988.0
680.0 18991.0
680.0 18994.0
680.0 18997.0
687.0 18807.0
687.0 18903.0
704.0 18799.0
704.0 18890.0
709.0 18664.0
709.0 18711.0
709.0 18744.0
709.0 18770.0
709.0 18794.0
709.0 18818.0
709.0 18842.0
709.0 18865.0
709.0 18889.0
709.0 18913.0
709.0 18940.0
709.0 18968.0
709.0 18997.0
714.0 18686.0
714.0 18741.0
714.0 18779.0
714.0 18814.0
714.0 18850.0
714.0 18884.0
714.0 18919.0
714.0 18957.0
714.0 18997.0
718.0 18664.0
718.0 18711.0
718.0 18745.0
718.0 18771.0
718.0 18795.0
718.0 18820.0
718.0 18845.0
718.0 18870.0
718.0 18895.0
718.0 18921.0
718.0 18950.0
718.0 18979.0
736.0 18671.0
736.0 18721.0
736.0 18766.0
738.0 18707.0
738.0 18758.0
738.0 18794.0
738.0 18827.0
738.0 18862.0
738.0 18898.0
738.0 18932.0
738.0 18970.0
763.0 18609.0
763.0 18615.0
763.0 18621.0
763.0 18628.0
763.0 18636.0
763.0 18644.0
763.0 18652.0
763.0 18660.0
763.0 18668.0
763.0 18676.0
763.0 18684.0
763.0 18692.0
763.0 18700.0
763.0 18708.0
763.0 18716.0
763.0 18724.0
763.0 18732.0
763.0 18741.0
763.0 18751.0
763.0 18761.0
807.0 18809.0
807.0 18903.0
837.0 18832.0
841.0 18722.0
842.0 18714.0
842.0 18762.0
842.0 18799.0
842.0 18834.0
842.0 18871.0
842.0 18905.0
842.0 18940.0
842.0 18982.0
843.0 18677.0
843.0 18740.0
852.0 18677.0
852.0 18731.0
852.0 18768.0
852.0 18802.0
852.0 18836.0
852.0 18868.0
852.0 18900.0
852.0 18932.0
852.0 18969.0
857.0 18690.0
857.0 18743.0
857.0 18778.0
857.0 18810.0
857.0 18841.0
857.0 18872.0
857.0 18902.0
857.0 18934.0
857.0 18968.0
860.0 18666.0
860.0 18713.0
860.0 18756.0
860.0 18805.0
860.0 18864.0
860.0 18930.0
860.0 18987.0
861.0 18721.0
861.0 18772.0
866.0 18639.0
866.0 18666.0
866.0 18694.0
866.0 18721.0
866.0 18747.0
866.0 18771.0
866.0 18803.0
866.0 18835.0
866.0 18868.0
866.0 18899.0
866.0 18931.0
866.0 18967.0
941.0 18692.0
941.0 18754.0
941.0 18790.0
941.0 18827.0
941.0 18862.0
941.0 18898.0
941.0 18933.0
941.0 18977.0
949.0 18674.0
949.0 18723.0
949.0 18762.0
949.0 18791.0
949.0 18820.0
949.0 18850.0
949.0 18879.0
949.0 18908.0
949.0 18938.0
949.0 18971.0
950.0 18722.0
950.0 18769.0
950.0 18806.0
950.0 18842.0
950.0 18881.0
950.0 18916.0
950.0 18958.0
950.0 19000.0
959.0 18690.0
959.0 18747.0
959.0 18783.0
959.0 18817.0
959.0 18850.0
959.0 18883.0
959.0 18916.0
959.0 18951.0
959.0 18988.0
973.0 18681.0
973.0 18738.0
973.0 18776.0
973.0 18809.0
973.0 18842.0
973.0 18875.0
973.0 18908.0
973.0 18939.0
973.0 18977.0
991.0 18685.0
991.0 18742.0
991.0 18777.0
991.0 18810.0
991.0 18843.0
991.0 18876.0
991.0 18909.0
991.0 18943.0
991.0 18980.0
1068.0 18700.0
1068.0 18754.0
1068.0 18788.0
1068.0 18821.0
1068.0 18854.0
1068.0 18889.0
1068.0 18923.0
1068.0 18961.0
1068.0 19000.0
1075.0 18709.0
1075.0 18762.0
1075.0 18797.0
1075.0 18830.0
1075.0 18866.0
1075.0 18900.0
1075.0 18938.0
1075.0 18979.0
1087.0 18714.0
1087.0 18762.0
1087.0 18799.0
1087.0 18835.0
1087.0 18871.0
1087.0 18906.0
1087.0 18941.0
1087.0 18979.0
1088.0 18723.0
1088.0 18769.0
1088.0 18809.0
1088.0 18849.0
1088.0 18889.0
1088.0 18929.0
1088.0 18976.0
1105.0 18673.0
1105.0 18722.0
1105.0 18760.0
1105.0 18789.0
1105.0 18819.0
1105.0 18849.0
1105.0 18880.0
1105.0 18912.0
1105.0 18943.0
1105.0 18976.0
1114.0 18673.0
1114.0 18720.0
1114.0 18759.0
1114.0 18791.0
1114.0 18822.0
1114.0 18854.0
1114.0 18885.0
1114.0 18916.0
1114.0 18947.0
1114.0 18984.0
1118.0 18714.0
1118.0 18762.0
1118.0 18795.0
1118.0 18828.0
1118.0 18864.0
1118.0 18897.0
1118.0 18930.0
1118.0 18967.0
1135.0 18728.0
1135.0 18775.0
1135.0 18815.0
1135.0 18855.0
1135.0 18895.0
1135.0 18935.0
1135.0 18979.0
1204.0 18690.0
1204.0 18746.0
1204.0 18781.0
1204.0 18816.0
1204.0 18849.0
1204.0 18882.0
1204.0 18915.0
1204.0 18948.0
1204.0 18987.0
1222.0 18682.0
1222.0 18741.0
1222.0 18777.0
1222.0 18809.0
1222.0 18841.0
1222.0 18874.0
1222.0 18907.0
1222.0 18940.0
1222.0 18976.0
1226.0 18677.0
1226.0 18728.0
1226.0 18767.0
1226.0 18800.0
1226.0 18833.0
1226.0 18864.0
1226.0 18896.0
1226.0 18928.0
1226.0 18965.0
1254.0 18690.0
1254.0 18747.0
1254.0 18783.0
1254.0 18817.0
1254.0 18851.0
1254.0 18887.0
1254.0 18921.0
1254.0 18958.0
1254.0 18998.0
1337.0 18687.0
1337.0 18744.0
1337.0 18779.0
1337.0 18812.0
1337.0 18845.0
1337.0 18879.0
1337.0 18912.0
1337.0 18946.0
1337.0 18985.0
1340.0 18689.0
1340.0 18744.0
1340.0 18780.0
1340.0 18815.0
1340.0 18849.0
1340.0 18882.0
1340.0 18915.0
1340.0 18949.0
1340.0 18987.0
1345.0 18687.0
1345.0 18743.0
1345.0 18779.0
1345.0 18812.0
1345.0 18846.0
1345.0 18879.0
1345.0 18911.0
1345.0 18944.0
1345.0 18983.0
1417.0 18721.0
1417.0 18769.0
1417.0 18808.0
1417.0 18848.0
1417.0 18888.0
1417.0 18925.0
1417.0 18967.0
1418.0 18691.0
1418.0 18750.0
1418.0 18785.0
1418.0 18820.0
1418.0 18856.0
1418.0 18890.0
1418.0 18925.0
1418.0 18964.0
1423.0 18696.0
1423.0 18752.0
1423.0 18788.0
1423.0 18823.0
1423.0 18858.0
1423.0 18893.0
1423.0 18928.0
1423.0 18967.0
1442.0 18609.0
1442.0 18615.0
1442.0 18621.0
1442.0 18628.0
1442.0 18636.0
1442.0 18644.0
1442.0 18652.0
1442.0 18660.0
1442.0 18668.0
1442.0 18676.0
1442.0 18684.0
1442.0 18692.0
1442.0 18700.0
1442.0 18708.0
1442.0 18716.0
1442.0 18724.0
1442.0 18732.0
1442.0 18740.0
1442.0 18748.0
1442.0 18756.0
1442.0 18764.0
1442.0 18772.0
1442.0 18780.0
1442.0 18788.0
1442.0 18796.0
1442.0 18804.0
1442.0 18812.0
1442.0 18820.0
1442.0 18828.0
1442.0 18836.0
1442.0 18844.0
1442.0 18852.0
1442.0 18860.0
1442.0 18868.0
1442.0 18876.0
1442.0 18884.0
1442.0 18892.0
1442.0 18900.0
1442.0 18908.0
1442.0 18916.0
1442.0 18924.0
1442.0 18932.0
1442.0 18941.0
1442.0 18951.0
1442.0 18961.0
1442.0 18971.0
1442.0 18981.0
1442.0 18991.0
