26.0 25207.0
680.0 25207.0
763.0 25209.0
1442.0 25209.0
26.0 25212.0
680.0 25212.0
763.0 25215.0
1442.0 25215.0
26.0 25216.0
680.0 25216.0
26.0 25220.0
680.0 25220.0
763.0 25221.0
1442.0 25221.0
26.0 25224.0
680.0 25224.0
763.0 25227.0
1442.0 25227.0
26.0 25228.0
680.0 25228.0
26.0 25232.0
347.0 25232.0
680.0 25232.0
599.0 25233.0
763.0 25233.0
1442.0 25233.0
26.0 25236.0
680.0 25236.0
866.0 25238.0
763.0 25239.0
1442.0 25239.0
26.0 25240.0
680.0 25240.0
450.0 25241.0
14.0 25242.0
303.0 25242.0
62.0 25243.0
87.0 25243.0
159.0 25243.0
166.0 25243.0
185.0 25243.0
296.0 25243.0
26.0 25244.0
286.0 25244.0
306.0 25244.0
435.0 25244.0
477.0 25244.0
558.0 25244.0
680.0 25244.0
709.0 25244.0
718.0 25244.0
157.0 25245.0
165.0 25245.0
167.0 25245.0
434.0 25245.0
580.0 25245.0
607.0 25245.0
763.0 25245.0
1442.0 25245.0
428.0 25246.0
26.0 25248.0
680.0 25248.0
347.0 25249.0
599.0 25251.0
763.0 25251.0
860.0 25251.0
1442.0 25251.0
26.0 25252.0
680.0 25252.0
112.0 25254.0
736.0 25254.0
632.0 25255.0
1105.0 25255.0
1114.0 25255.0
26.0 25256.0
217.0 25256.0
591.0 25256.0
680.0 25256.0
949.0 25256.0
973.0 25256.0
1226.0 25256.0
232.0 25257.0
241.0 25257.0
605.0 25257.0
763.0 25257.0
1442.0 25257.0
224.0 25258.0
734.0 25258.0
843.0 25258.0
852.0 25258.0
959.0 25258.0
129.0 25259.0
227.0 25259.0
328.0 25259.0
842.0 25259.0
941.0 25259.0
1222.0 25259.0
26.0 25260.0
680.0 25260.0
866.0 25260.0
1068.0 25260.0
1254.0 25260.0
1337.0 25260.0
1345.0 25260.0
259.0 25261.0
366.0 25261.0
456.0 25261.0
487.0 25261.0
861.0 25261.0
991.0 25261.0
1118.0 25261.0
1340.0 25261.0
258.0 25262.0
623.0 25262.0
714.0 25262.0
745.0 25262.0
857.0 25262.0
1204.0 25262.0
1418.0 25262.0
1423.0 25262.0
334.0 25263.0
696.0 25263.0
738.0 25263.0
744.0 25263.0
763.0 25263.0
950.0 25263.0
1087.0 25263.0
1442.0 25263.0
26.0 25264.0
680.0 25264.0
841.0 25264.0
1075.0 25264.0
1088.0 25264.0
382.0 25265.0
347.0 25266.0
303.0 25267.0
450.0 25267.0
26.0 25268.0
296.0 25268.0
599.0 25268.0
680.0 25268.0
1417.0 25268.0
763.0 25269.0
1442.0 25269.0
14.0 25270.0
62.0 25270.0
166.0 25270.0
185.0 25270.0
435.0 25270.0
558.0 25270.0
708.0 25270.0
709.0 25270.0
718.0 25270.0
477.0 25271.0
607.0 25271.0
26.0 25272.0
159.0 25272.0
286.0 25272.0
680.0 25272.0
1135.0 25272.0
306.0 25273.0
434.0 25273.0
87.0 25274.0
157.0 25274.0
167.0 25274.0
428.0 25274.0
580.0 25274.0
763.0 25275.0
1442.0 25275.0
26.0 25276.0
680.0 25276.0
165.0 25278.0
26.0 25280.0
680.0 25280.0
866.0 25280.0
763.0 25281.0
1442.0 25281.0
347.0 25282.0
860.0 25282.0
26.0 25284.0
680.0 25284.0
599.0 25285.0
763.0 25287.0
1442.0 25287.0
26.0 25288.0
680.0 25288.0
26.0 25292.0
680.0 25292.0
736.0 25292.0
112.0 25293.0
303.0 25293.0
450.0 25293.0
591.0 25293.0
763.0 25293.0
1105.0 25293.0
1114.0 25293.0
1442.0 25293.0
605.0 25294.0
632.0 25294.0
949.0 25294.0
232.0 25295.0
296.0 25295.0
734.0 25295.0
26.0 25296.0
241.0 25296.0
680.0 25296.0
973.0 25297.0
1226.0 25297.0
14.0 25298.0
62.0 25298.0
166.0 25298.0
185.0 25298.0
224.0 25298.0
435.0 25298.0
558.0 25298.0
709.0 25298.0
718.0 25298.0
217.0 25299.0
347.0 25299.0
607.0 25299.0
763.0 25299.0
1442.0 25299.0
26.0 25300.0
159.0 25300.0
286.0 25300.0
477.0 25300.0
680.0 25300.0
843.0 25300.0
1222.0 25300.0
306.0 25301.0
852.0 25301.0
157.0 25302.0
434.0 25302.0
866.0 25302.0
959.0 25302.0
428.0 25303.0
599.0 25303.0
1337.0 25303.0
1345.0 25303.0
26.0 25304.0
87.0 25304.0
167.0 25304.0
227.0 25304.0
366.0 25304.0
680.0 25304.0
857.0 25304.0
1442.0 25304.0
129.0 25305.0
580.0 25305.0
714.0 25305.0
763.0 25305.0
842.0 25305.0
861.0 25305.0
991.0 25305.0
1068.0 25305.0
1118.0 25305.0
1204.0 25305.0
258.0 25306.0
259.0 25306.0
456.0 25306.0
487.0 25306.0
1254.0 25306.0
1340.0 25306.0
328.0 25307.0
696.0 25307.0
738.0 25307.0
744.0 25307.0
745.0 25307.0
941.0 25307.0
1087.0 25307.0
26.0 25308.0
623.0 25308.0
680.0 25308.0
1418.0 25308.0
1423.0 25308.0
1442.0 25309.0
1075.0 25310.0
165.0 25311.0
334.0 25311.0
763.0 25311.0
950.0 25311.0
26.0 25312.0
680.0 25312.0
1088.0 25312.0
382.0 25313.0
1442.0 25314.0
860.0 25315.0
1417.0 25315.0
26.0 25316.0
347.0 25316.0
680.0 25316.0
735.0 25316.0
763.0 25317.0
303.0 25318.0
725.0 25318.0
1135.0 25318.0
296.0 25319.0
450.0 25319.0
841.0 25319.0
1442.0 25319.0
26.0 25320.0
599.0 25320.0
680.0 25320.0
866.0 25321.0
558.0 25323.0
763.0 25323.0
26.0 25324.0
185.0 25324.0
680.0 25324.0
708.0 25324.0
709.0 25324.0
718.0 25324.0
1105.0 25324.0
1442.0 25324.0
435.0 25325.0
607.0 25325.0
14.0 25326.0
62.0 25326.0
166.0 25326.0
734.0 25326.0
949.0 25326.0
477.0 25327.0
736.0 25327.0
1114.0 25327.0
26.0 25328.0
159.0 25328.0
286.0 25328.0
680.0 25328.0
306.0 25329.0
605.0 25329.0
763.0 25329.0
1226.0 25329.0
1442.0 25329.0
157.0 25330.0
591.0 25330.0
973.0 25330.0
112.0 25331.0
232.0 25331.0
428.0 25331.0
434.0 25331.0
632.0 25331.0
880.0 25331.0
26.0 25332.0
347.0 25332.0
680.0 25332.0
167.0 25333.0
1012.0 25333.0
87.0 25334.0
1165.0 25334.0
1222.0 25334.0
1442.0 25334.0
224.0 25335.0
580.0 25335.0
763.0 25335.0
959.0 25335.0
1172.0 25335.0
26.0 25336.0
241.0 25336.0
680.0 25336.0
857.0 25336.0
1251.0 25336.0
852.0 25337.0
599.0 25338.0
1337.0 25338.0
1345.0 25338.0
714.0 25339.0
991.0 25339.0
1442.0 25339.0
26.0 25340.0
680.0 25340.0
843.0 25340.0
1068.0 25340.0
763.0 25341.0
866.0 25341.0
1204.0 25341.0
738.0 25342.0
744.0 25342.0
1118.0 25342.0
1254.0 25342.0
1340.0 25342.0
217.0 25343.0
303.0 25343.0
26.0 25344.0
680.0 25344.0
842.0 25344.0
1087.0 25344.0
1418.0 25344.0
1442.0 25344.0
165.0 25345.0
296.0 25345.0
366.0 25345.0
696.0 25345.0
941.0 25345.0
1156.0 25345.0
450.0 25346.0
1038.0 25346.0
1075.0 25346.0
1423.0 25346.0
227.0 25347.0
763.0 25347.0
26.0 25348.0
129.0 25348.0
680.0 25348.0
456.0 25349.0
860.0 25349.0
1442.0 25349.0
347.0 25350.0
487.0 25350.0
558.0 25350.0
709.0 25350.0
745.0 25350.0
623.0 25351.0
718.0 25351.0
950.0 25351.0
1088.0 25351.0
26.0 25352.0
185.0 25352.0
258.0 25352.0
680.0 25352.0
861.0 25352.0
259.0 25353.0
435.0 25353.0
607.0 25353.0
763.0 25353.0
14.0 25354.0
62.0 25354.0
166.0 25354.0
1105.0 25354.0
1442.0 25354.0
334.0 25355.0
599.0 25355.0
1417.0 25355.0
26.0 25356.0
159.0 25356.0
286.0 25356.0
477.0 25356.0
680.0 25356.0
949.0 25356.0
306.0 25357.0
734.0 25357.0
1114.0 25357.0
157.0 25358.0
1135.0 25358.0
328.0 25359.0
382.0 25359.0
428.0 25359.0
763.0 25359.0
1442.0 25359.0
26.0 25360.0
680.0 25360.0
866.0 25360.0
1226.0 25360.0
434.0 25361.0
167.0 25362.0
736.0 25363.0
973.0 25363.0
26.0 25364.0
680.0 25364.0
1442.0 25364.0
580.0 25365.0
605.0 25365.0
763.0 25365.0
87.0 25366.0
725.0 25366.0
232.0 25367.0
347.0 25367.0
857.0 25367.0
26.0 25368.0
303.0 25368.0
591.0 25368.0
632.0 25368.0
680.0 25368.0
1222.0 25368.0
112.0 25369.0
1442.0 25369.0
296.0 25370.0
735.0 25370.0
959.0 25370.0
224.0 25371.0
763.0 25371.0
26.0 25372.0
680.0 25372.0
852.0 25372.0
1337.0 25372.0
241.0 25373.0
450.0 25373.0
599.0 25373.0
991.0 25373.0
1345.0 25373.0
558.0 25375.0
714.0 25375.0
744.0 25375.0
1442.0 25375.0
26.0 25376.0
680.0 25376.0
709.0 25376.0
1068.0 25376.0
763.0 25377.0
1204.0 25377.0
165.0 25378.0
708.0 25378.0
718.0 25378.0
738.0 25378.0
1254.0 25378.0
1340.0 25378.0
185.0 25379.0
841.0 25379.0
843.0 25379.0
866.0 25379.0
1118.0 25379.0
26.0 25380.0
435.0 25380.0
680.0 25380.0
1087.0 25381.0
1442.0 25381.0
14.0 25382.0
62.0 25382.0
166.0 25382.0
286.0 25382.0
607.0 25382.0
696.0 25382.0
860.0 25382.0
1418.0 25382.0
347.0 25383.0
763.0 25383.0
26.0 25384.0
159.0 25384.0
217.0 25384.0
366.0 25384.0
477.0 25384.0
680.0 25384.0
1075.0 25384.0
306.0 25385.0
1105.0 25385.0
157.0 25386.0
1423.0 25386.0
842.0 25387.0
1442.0 25387.0
26.0 25388.0
680.0 25388.0
941.0 25388.0
763.0 25389.0
949.0 25389.0
129.0 25390.0
167.0 25390.0
428.0 25390.0
599.0 25390.0
734.0 25390.0
1114.0 25390.0
434.0 25391.0
26.0 25392.0
680.0 25392.0
745.0 25392.0
303.0 25393.0
487.0 25393.0
1442.0 25393.0
227.0 25394.0
580.0 25394.0
87.0 25395.0
296.0 25395.0
623.0 25395.0
763.0 25395.0
1088.0 25395.0
26.0 25396.0
456.0 25396.0
680.0 25396.0
861.0 25396.0
258.0 25397.0
1226.0 25397.0
259.0 25399.0
334.0 25399.0
450.0 25399.0
736.0 25399.0
950.0 25399.0
1442.0 25399.0
26.0 25400.0
347.0 25400.0
680.0 25400.0
866.0 25400.0
763.0 25401.0
558.0 25402.0
605.0 25402.0
709.0 25403.0
26.0 25404.0
632.0 25404.0
680.0 25404.0
718.0 25404.0
973.0 25404.0
185.0 25405.0
857.0 25405.0
1442.0 25405.0
382.0 25406.0
591.0 25406.0
1417.0 25406.0
112.0 25407.0
232.0 25407.0
599.0 25407.0
763.0 25407.0
1222.0 25407.0
26.0 25408.0
680.0 25408.0
224.0 25409.0
241.0 25409.0
328.0 25409.0
435.0 25409.0
607.0 25409.0
14.0 25410.0
62.0 25410.0
165.0 25410.0
166.0 25410.0
286.0 25410.0
1135.0 25410.0
1442.0 25411.0
26.0 25412.0
159.0 25412.0
477.0 25412.0
680.0 25412.0
306.0 25413.0
763.0 25413.0
959.0 25413.0
157.0 25414.0
1337.0 25414.0
991.0 25415.0
1345.0 25415.0
26.0 25416.0
680.0 25416.0
347.0 25417.0
714.0 25417.0
852.0 25417.0
860.0 25417.0
1442.0 25417.0
167.0 25418.0
303.0 25418.0
744.0 25418.0
428.0 25419.0
763.0 25419.0
843.0 25419.0
1068.0 25419.0
26.0 25420.0
680.0 25420.0
296.0 25421.0
434.0 25421.0
866.0 25421.0
1118.0 25421.0
738.0 25422.0
1105.0 25422.0
1204.0 25422.0
1254.0 25422.0
1340.0 25422.0
1442.0 25423.0
26.0 25424.0
366.0 25424.0
580.0 25424.0
680.0 25424.0
450.0 25425.0
599.0 25425.0
763.0 25425.0
949.0 25425.0
1087.0 25425.0
87.0 25426.0
734.0 25426.0
217.0 25427.0
1114.0 25427.0
1418.0 25427.0
26.0 25428.0
680.0 25428.0
696.0 25429.0
1442.0 25429.0
558.0 25430.0
709.0 25430.0
763.0 25431.0
26.0 25432.0
129.0 25432.0
680.0 25432.0
708.0 25432.0
718.0 25432.0
1075.0 25432.0
1423.0 25432.0
185.0 25433.0
1226.0 25433.0
347.0 25434.0
487.0 25434.0
842.0 25435.0
1442.0 25435.0
26.0 25436.0
680.0 25436.0
941.0 25436.0
435.0 25437.0
607.0 25437.0
763.0 25437.0
841.0 25437.0
14.0 25438.0
62.0 25438.0
166.0 25438.0
286.0 25438.0
605.0 25438.0
736.0 25438.0
227.0 25439.0
745.0 25439.0
26.0 25440.0
159.0 25440.0
477.0 25440.0
623.0 25440.0
632.0 25440.0
680.0 25440.0
165.0 25441.0
306.0 25441.0
861.0 25441.0
1442.0 25441.0
157.0 25442.0
258.0 25442.0
857.0 25442.0
866.0 25442.0
456.0 25443.0
599.0 25443.0
763.0 25443.0
26.0 25444.0
303.0 25444.0
591.0 25444.0
680.0 25444.0
112.0 25445.0
334.0 25445.0
167.0 25446.0
232.0 25447.0
296.0 25447.0
1088.0 25447.0
1222.0 25447.0
1442.0 25447.0
26.0 25448.0
224.0 25448.0
241.0 25448.0
259.0 25448.0
680.0 25448.0
950.0 25448.0
973.0 25448.0
428.0 25449.0
763.0 25449.0
434.0 25450.0
860.0 25450.0
347.0 25451.0
450.0 25451.0
26.0 25452.0
680.0 25452.0
991.0 25453.0
1442.0 25453.0
382.0 25454.0
580.0 25454.0
959.0 25454.0
558.0 25455.0
763.0 25455.0
26.0 25456.0
87.0 25456.0
680.0 25456.0
709.0 25456.0
1337.0 25456.0
714.0 25458.0
718.0 25458.0
1345.0 25458.0
185.0 25459.0
843.0 25459.0
1105.0 25459.0
1417.0 25459.0
1442.0 25459.0
26.0 25460.0
599.0 25460.0
680.0 25460.0
852.0 25460.0
763.0 25461.0
949.0 25461.0
1068.0 25461.0
734.0 25462.0
744.0 25462.0
1135.0 25462.0
328.0 25463.0
866.0 25463.0
1118.0 25463.0
1254.0 25463.0
26.0 25464.0
607.0 25464.0
680.0 25464.0
286.0 25465.0
366.0 25465.0
435.0 25465.0
1204.0 25465.0
1442.0 25465.0
14.0 25466.0
62.0 25466.0
166.0 25466.0
738.0 25466.0
1114.0 25466.0
1340.0 25466.0
217.0 25467.0
347.0 25467.0
477.0 25467.0
763.0 25467.0
26.0 25468.0
159.0 25468.0
680.0 25468.0
1087.0 25468.0
306.0 25469.0
1226.0 25469.0
157.0 25470.0
303.0 25470.0
1418.0 25470.0
296.0 25471.0
1442.0 25471.0
26.0 25472.0
680.0 25472.0
696.0 25472.0
165.0 25473.0
487.0 25473.0
763.0 25473.0
129.0 25474.0
605.0 25474.0
167.0 25475.0
26.0 25476.0
632.0 25476.0
680.0 25476.0
736.0 25476.0
1442.0 25477.0
434.0 25478.0
450.0 25478.0
599.0 25478.0
857.0 25478.0
1075.0 25478.0
428.0 25479.0
763.0 25479.0
842.0 25479.0
26.0 25480.0
680.0 25480.0
1423.0 25480.0
558.0 25482.0
709.0 25483.0
1442.0 25483.0
347.0 25484.0
591.0 25484.0
680.0 25484.0
861.0 25484.0
866.0 25484.0
26.0 25485.0
227.0 25485.0
580.0 25485.0
763.0 25485.0
860.0 25485.0
112.0 25486.0
232.0 25486.0
258.0 25486.0
456.0 25486.0
708.0 25486.0
718.0 25486.0
87.0 25487.0
623.0 25487.0
745.0 25487.0
941.0 25487.0
185.0 25488.0
680.0 25488.0
841.0 25488.0
1222.0 25488.0
26.0 25489.0
1442.0 25489.0
224.0 25491.0
241.0 25491.0
607.0 25491.0
763.0 25491.0
680.0 25493.0
973.0 25493.0
991.0 25494.0
26.0 25495.0
62.0 25495.0
166.0 25495.0
286.0 25495.0
435.0 25495.0
1105.0 25495.0
1442.0 25495.0
259.0 25496.0
303.0 25496.0
599.0 25496.0
950.0 25496.0
14.0 25497.0
680.0 25497.0
763.0 25497.0
1337.0 25499.0
477.0 25500.0
959.0 25500.0
26.0 25501.0
159.0 25501.0
714.0 25501.0
949.0 25501.0
157.0 25502.0
306.0 25502.0
735.0 25502.0
347.0 25503.0
680.0 25503.0
763.0 25503.0
1442.0 25503.0
26.0 25507.0
680.0 25508.0
866.0 25508.0
763.0 25509.0
1442.0 25511.0
26.0 25513.0
680.0 25513.0
763.0 25515.0
680.0 25518.0
26.0 25519.0
1442.0 25519.0
599.0 25520.0
763.0 25521.0
680.0 25523.0
26.0 25525.0
763.0 25527.0
1442.0 25527.0
680.0 25528.0
347.0 25529.0
26.0 25531.0
680.0 25533.0
763.0 25533.0
26.0 25537.0
450.0 25537.0
1442.0 25537.0
680.0 25538.0
763.0 25539.0
866.0 25539.0
26.0 25543.0
680.0 25543.0
763.0 25545.0
599.0 25546.0
680.0 25548.0
860.0 25550.0
26.0 25551.0
763.0 25551.0
680.0 25553.0
347.0 25555.0
591.0 25557.0
763.0 25557.0
680.0 25558.0
26.0 25559.0
680.0 25563.0
763.0 25563.0
26.0 25567.0
680.0 25568.0
763.0 25569.0
680.0 25573.0
26.0 25575.0
599.0 25575.0
763.0 25575.0
680.0 25579.0
736.0 25580.0
763.0 25581.0
680.0 25585.0
347.0 25586.0
763.0 25587.0
680.0 25591.0
763.0 25593.0
680.0 25600.0
