26.0 36006.0
763.0 36006.0
1442.0 36006.0
680.0 36009.0
26.0 36010.0
763.0 36010.0
1442.0 36010.0
763.0 36013.0
26.0 36014.0
1442.0 36014.0
680.0 36015.0
763.0 36016.0
1442.0 36017.0
26.0 36018.0
763.0 36019.0
680.0 36021.0
1442.0 36021.0
26.0 36022.0
763.0 36022.0
1442.0 36024.0
763.0 36025.0
26.0 36026.0
680.0 36027.0
347.0 36028.0
763.0 36028.0
1442.0 36028.0
599.0 36029.0
866.0 36029.0
26.0 36030.0
763.0 36031.0
1442.0 36031.0
1012.0 36032.0
1156.0 36032.0
680.0 36033.0
1001.0 36033.0
1165.0 36033.0
1172.0 36033.0
1251.0 36033.0
26.0 36034.0
217.0 36034.0
328.0 36034.0
623.0 36034.0
632.0 36034.0
735.0 36034.0
745.0 36034.0
1038.0 36034.0
1253.0 36034.0
1390.0 36034.0
1442.0 36034.0
112.0 36035.0
224.0 36035.0
227.0 36035.0
232.0 36035.0
241.0 36035.0
259.0 36035.0
334.0 36035.0
366.0 36035.0
487.0 36035.0
605.0 36035.0
725.0 36035.0
763.0 36035.0
880.0 36035.0
1404.0 36035.0
129.0 36036.0
258.0 36036.0
382.0 36036.0
1016.0 36036.0
708.0 36037.0
1442.0 36037.0
26.0 36038.0
744.0 36038.0
763.0 36038.0
680.0 36039.0
696.0 36040.0
734.0 36040.0
1442.0 36040.0
736.0 36041.0
763.0 36041.0
26.0 36042.0
860.0 36042.0
843.0 36043.0
861.0 36043.0
866.0 36043.0
1442.0 36043.0
347.0 36044.0
591.0 36044.0
763.0 36044.0
973.0 36044.0
1105.0 36044.0
1226.0 36044.0
456.0 36045.0
599.0 36045.0
680.0 36045.0
857.0 36045.0
991.0 36045.0
1114.0 36045.0
1254.0 36045.0
1337.0 36045.0
1340.0 36045.0
26.0 36046.0
714.0 36046.0
852.0 36046.0
949.0 36046.0
1075.0 36046.0
1118.0 36046.0
1222.0 36046.0
1345.0 36046.0
1423.0 36046.0
1442.0 36046.0
738.0 36047.0
763.0 36047.0
959.0 36047.0
1068.0 36047.0
1135.0 36047.0
1418.0 36047.0
841.0 36048.0
842.0 36048.0
941.0 36048.0
950.0 36048.0
1087.0 36048.0
1088.0 36048.0
1204.0 36048.0
1417.0 36048.0
450.0 36049.0
26.0 36050.0
1012.0 36050.0
1156.0 36050.0
1442.0 36050.0
296.0 36051.0
303.0 36051.0
680.0 36051.0
763.0 36051.0
1172.0 36051.0
1251.0 36051.0
718.0 36052.0
725.0 36052.0
735.0 36052.0
880.0 36052.0
1001.0 36052.0
1038.0 36052.0
1165.0 36052.0
185.0 36053.0
1253.0 36053.0
1390.0 36053.0
26.0 36054.0
232.0 36054.0
428.0 36054.0
558.0 36054.0
605.0 36054.0
632.0 36054.0
709.0 36054.0
763.0 36054.0
1404.0 36054.0
1442.0 36054.0
241.0 36055.0
435.0 36055.0
1016.0 36055.0
62.0 36056.0
159.0 36056.0
217.0 36056.0
224.0 36056.0
366.0 36056.0
434.0 36056.0
623.0 36056.0
745.0 36056.0
14.0 36057.0
87.0 36057.0
112.0 36057.0
157.0 36057.0
286.0 36057.0
328.0 36057.0
334.0 36057.0
607.0 36057.0
680.0 36057.0
763.0 36057.0
866.0 36057.0
26.0 36058.0
129.0 36058.0
227.0 36058.0
306.0 36058.0
1442.0 36058.0
166.0 36059.0
258.0 36059.0
259.0 36059.0
347.0 36059.0
477.0 36059.0
487.0 36059.0
382.0 36060.0
599.0 36060.0
744.0 36060.0
763.0 36060.0
167.0 36061.0
580.0 36061.0
708.0 36061.0
734.0 36061.0
1442.0 36061.0
26.0 36062.0
696.0 36062.0
680.0 36063.0
763.0 36063.0
1442.0 36065.0
26.0 36066.0
736.0 36066.0
860.0 36066.0
763.0 36067.0
680.0 36068.0
843.0 36069.0
1442.0 36069.0
26.0 36070.0
763.0 36070.0
1012.0 36070.0
1156.0 36070.0
725.0 36071.0
861.0 36071.0
866.0 36071.0
880.0 36071.0
1251.0 36071.0
591.0 36072.0
735.0 36072.0
1172.0 36072.0
1442.0 36072.0
165.0 36073.0
347.0 36073.0
680.0 36073.0
763.0 36073.0
1038.0 36073.0
1105.0 36073.0
26.0 36074.0
232.0 36074.0
456.0 36074.0
857.0 36074.0
1001.0 36074.0
1165.0 36074.0
1226.0 36074.0
599.0 36075.0
605.0 36075.0
632.0 36075.0
1114.0 36075.0
1253.0 36075.0
1390.0 36075.0
241.0 36076.0
763.0 36076.0
973.0 36076.0
1404.0 36076.0
1442.0 36076.0
224.0 36077.0
852.0 36077.0
949.0 36077.0
991.0 36077.0
1016.0 36077.0
1222.0 36077.0
26.0 36078.0
217.0 36078.0
334.0 36078.0
366.0 36078.0
623.0 36078.0
680.0 36078.0
745.0 36078.0
112.0 36079.0
714.0 36079.0
763.0 36079.0
841.0 36079.0
1068.0 36079.0
1075.0 36079.0
1254.0 36079.0
1337.0 36079.0
1340.0 36079.0
328.0 36080.0
738.0 36080.0
1118.0 36080.0
1442.0 36080.0
129.0 36081.0
227.0 36081.0
258.0 36081.0
26.0 36082.0
450.0 36082.0
487.0 36082.0
1087.0 36082.0
1088.0 36082.0
1345.0 36082.0
259.0 36083.0
296.0 36083.0
303.0 36083.0
382.0 36083.0
680.0 36083.0
763.0 36083.0
959.0 36083.0
1204.0 36083.0
1423.0 36083.0
718.0 36084.0
734.0 36084.0
744.0 36084.0
762.0 36084.0
866.0 36084.0
1418.0 36084.0
1442.0 36084.0
466.0 36085.0
708.0 36085.0
709.0 36085.0
950.0 36085.0
26.0 36086.0
696.0 36086.0
763.0 36086.0
842.0 36086.0
941.0 36086.0
1417.0 36086.0
185.0 36087.0
1135.0 36087.0
347.0 36088.0
435.0 36088.0
558.0 36088.0
680.0 36088.0
1442.0 36088.0
607.0 36089.0
763.0 36089.0
860.0 36089.0
26.0 36090.0
428.0 36090.0
599.0 36090.0
725.0 36090.0
880.0 36090.0
735.0 36091.0
736.0 36091.0
1012.0 36091.0
62.0 36092.0
286.0 36092.0
763.0 36092.0
1156.0 36092.0
1251.0 36092.0
1442.0 36092.0
14.0 36093.0
157.0 36093.0
159.0 36093.0
232.0 36093.0
680.0 36093.0
1038.0 36093.0
1172.0 36093.0
26.0 36094.0
306.0 36094.0
434.0 36094.0
605.0 36094.0
843.0 36094.0
87.0 36095.0
166.0 36095.0
241.0 36095.0
477.0 36095.0
632.0 36095.0
763.0 36095.0
224.0 36096.0
1001.0 36096.0
1165.0 36096.0
1442.0 36096.0
591.0 36097.0
861.0 36097.0
1390.0 36097.0
26.0 36098.0
167.0 36098.0
366.0 36098.0
680.0 36098.0
1404.0 36098.0
217.0 36099.0
334.0 36099.0
580.0 36099.0
763.0 36099.0
866.0 36099.0
1253.0 36099.0
112.0 36100.0
456.0 36100.0
623.0 36100.0
745.0 36100.0
1016.0 36100.0
1442.0 36100.0
347.0 36101.0
1105.0 36101.0
26.0 36102.0
763.0 36102.0
129.0 36103.0
328.0 36103.0
680.0 36103.0
258.0 36104.0
599.0 36104.0
857.0 36104.0
1114.0 36104.0
1226.0 36104.0
1442.0 36104.0
227.0 36105.0
487.0 36105.0
763.0 36105.0
26.0 36106.0
259.0 36107.0
382.0 36107.0
734.0 36107.0
949.0 36107.0
680.0 36108.0
763.0 36108.0
841.0 36108.0
973.0 36108.0
991.0 36108.0
1442.0 36108.0
383.0 36109.0
708.0 36109.0
1222.0 36109.0
26.0 36110.0
714.0 36110.0
744.0 36110.0
852.0 36110.0
880.0 36110.0
725.0 36111.0
735.0 36111.0
763.0 36111.0
860.0 36111.0
296.0 36112.0
303.0 36112.0
377.0 36112.0
450.0 36112.0
696.0 36112.0
1012.0 36112.0
1254.0 36112.0
1442.0 36112.0
232.0 36113.0
680.0 36113.0
718.0 36113.0
866.0 36113.0
1156.0 36113.0
26.0 36114.0
605.0 36114.0
709.0 36114.0
738.0 36114.0
1038.0 36114.0
1068.0 36114.0
1075.0 36114.0
1118.0 36114.0
1251.0 36114.0
1337.0 36114.0
1340.0 36114.0
241.0 36115.0
347.0 36115.0
475.0 36115.0
736.0 36115.0
763.0 36115.0
1172.0 36115.0
165.0 36116.0
224.0 36116.0
632.0 36116.0
1442.0 36116.0
1087.0 36117.0
26.0 36118.0
185.0 36118.0
680.0 36118.0
763.0 36118.0
843.0 36118.0
959.0 36118.0
1088.0 36118.0
1204.0 36118.0
366.0 36119.0
599.0 36119.0
1001.0 36119.0
1345.0 36119.0
1390.0 36119.0
1423.0 36119.0
558.0 36120.0
607.0 36120.0
1165.0 36120.0
1418.0 36120.0
1442.0 36120.0
112.0 36121.0
217.0 36121.0
334.0 36121.0
591.0 36121.0
763.0 36121.0
1404.0 36121.0
26.0 36122.0
435.0 36122.0
680.0 36122.0
745.0 36122.0
623.0 36123.0
861.0 36123.0
1253.0 36123.0
428.0 36124.0
763.0 36124.0
1016.0 36124.0
1442.0 36124.0
129.0 36125.0
328.0 36125.0
842.0 36125.0
941.0 36125.0
950.0 36125.0
1417.0 36125.0
14.0 36126.0
26.0 36126.0
286.0 36126.0
680.0 36126.0
62.0 36127.0
159.0 36127.0
258.0 36127.0
306.0 36127.0
456.0 36127.0
487.0 36127.0
763.0 36127.0
866.0 36127.0
157.0 36128.0
227.0 36128.0
1105.0 36128.0
1135.0 36128.0
1442.0 36128.0
87.0 36129.0
166.0 36129.0
347.0 36129.0
477.0 36129.0
26.0 36130.0
259.0 36130.0
680.0 36130.0
167.0 36131.0
382.0 36131.0
434.0 36131.0
725.0 36131.0
734.0 36131.0
735.0 36131.0
763.0 36131.0
857.0 36131.0
880.0 36131.0
468.0 36132.0
599.0 36132.0
860.0 36132.0
1114.0 36132.0
1226.0 36132.0
1442.0 36132.0
232.0 36133.0
580.0 36133.0
605.0 36133.0
708.0 36133.0
26.0 36134.0
680.0 36134.0
763.0 36134.0
949.0 36134.0
1012.0 36134.0
241.0 36135.0
1038.0 36135.0
1156.0 36135.0
1251.0 36135.0
224.0 36136.0
632.0 36136.0
744.0 36136.0
973.0 36136.0
991.0 36136.0
1442.0 36136.0
296.0 36137.0
736.0 36137.0
763.0 36137.0
841.0 36137.0
26.0 36138.0
303.0 36138.0
680.0 36138.0
696.0 36138.0
852.0 36138.0
1172.0 36138.0
1222.0 36138.0
450.0 36139.0
714.0 36139.0
718.0 36139.0
843.0 36139.0
366.0 36140.0
709.0 36140.0
763.0 36140.0
866.0 36140.0
1442.0 36140.0
1254.0 36141.0
1390.0 36141.0
26.0 36142.0
334.0 36142.0
347.0 36142.0
591.0 36142.0
680.0 36142.0
1001.0 36142.0
1068.0 36142.0
1134.0 36142.0
112.0 36143.0
217.0 36143.0
449.0 36143.0
738.0 36143.0
763.0 36143.0
1075.0 36143.0
1165.0 36143.0
1337.0 36143.0
1340.0 36143.0
745.0 36144.0
1118.0 36144.0
1404.0 36144.0
1442.0 36144.0
185.0 36145.0
607.0 36145.0
623.0 36145.0
861.0 36145.0
1087.0 36145.0
26.0 36146.0
558.0 36146.0
599.0 36146.0
612.0 36146.0
680.0 36146.0
1252.0 36146.0
129.0 36147.0
763.0 36147.0
870.0 36147.0
1016.0 36147.0
1204.0 36147.0
1253.0 36147.0
959.0 36148.0
1442.0 36148.0
258.0 36149.0
328.0 36149.0
435.0 36149.0
456.0 36149.0
762.0 36149.0
1088.0 36149.0
1418.0 36149.0
1423.0 36149.0
26.0 36150.0
487.0 36150.0
680.0 36150.0
725.0 36150.0
763.0 36150.0
1345.0 36150.0
165.0 36151.0
227.0 36151.0
860.0 36151.0
880.0 36151.0
428.0 36152.0
605.0 36152.0
735.0 36152.0
1105.0 36152.0
1442.0 36152.0
14.0 36153.0
286.0 36153.0
763.0 36153.0
866.0 36153.0
26.0 36154.0
232.0 36154.0
259.0 36154.0
680.0 36154.0
842.0 36154.0
857.0 36154.0
62.0 36155.0
159.0 36155.0
241.0 36155.0
306.0 36155.0
347.0 36155.0
466.0 36155.0
734.0 36155.0
941.0 36155.0
950.0 36155.0
157.0 36156.0
224.0 36156.0
382.0 36156.0
477.0 36156.0
632.0 36156.0
763.0 36156.0
1012.0 36156.0
1038.0 36156.0
1114.0 36156.0
1226.0 36156.0
1251.0 36156.0
1417.0 36156.0
1442.0 36156.0
87.0 36157.0
166.0 36157.0
736.0 36157.0
1156.0 36157.0
26.0 36158.0
680.0 36158.0
949.0 36158.0
167.0 36159.0
599.0 36159.0
708.0 36159.0
763.0 36159.0
1135.0 36159.0
296.0 36160.0
366.0 36160.0
434.0 36160.0
843.0 36160.0
1442.0 36160.0
973.0 36161.0
991.0 36161.0
1172.0 36161.0
26.0 36162.0
303.0 36162.0
580.0 36162.0
680.0 36162.0
744.0 36162.0
841.0 36162.0
334.0 36163.0
591.0 36163.0
763.0 36163.0
1390.0 36163.0
112.0 36164.0
217.0 36164.0
696.0 36164.0
852.0 36164.0
1001.0 36164.0
1222.0 36164.0
1442.0 36164.0
450.0 36165.0
709.0 36165.0
714.0 36165.0
718.0 36165.0
26.0 36166.0
680.0 36166.0
745.0 36166.0
763.0 36166.0
866.0 36166.0
1165.0 36166.0
1404.0 36166.0
861.0 36167.0
347.0 36168.0
623.0 36168.0
1254.0 36168.0
1442.0 36168.0
763.0 36169.0
1068.0 36169.0
26.0 36170.0
129.0 36170.0
680.0 36170.0
725.0 36170.0
738.0 36170.0
860.0 36170.0
185.0 36171.0
258.0 36171.0
456.0 36171.0
607.0 36171.0
880.0 36171.0
1016.0 36171.0
1075.0 36171.0
1253.0 36171.0
1337.0 36171.0
1340.0 36171.0
487.0 36172.0
558.0 36172.0
735.0 36172.0
763.0 36172.0
1118.0 36172.0
1442.0 36172.0
328.0 36173.0
599.0 36173.0
605.0 36173.0
1087.0 36173.0
26.0 36174.0
227.0 36174.0
232.0 36174.0
680.0 36174.0
241.0 36175.0
435.0 36175.0
763.0 36175.0
1204.0 36175.0
224.0 36176.0
601.0 36176.0
625.0 36176.0
632.0 36176.0
1105.0 36176.0
1442.0 36176.0
259.0 36177.0
736.0 36177.0
857.0 36177.0
959.0 36177.0
992.0 36177.0
1012.0 36177.0
1038.0 36177.0
1418.0 36177.0
1423.0 36177.0
26.0 36178.0
428.0 36178.0
680.0 36178.0
734.0 36178.0
1156.0 36178.0
1251.0 36178.0
1345.0 36178.0
382.0 36179.0
763.0 36179.0
866.0 36179.0
1088.0 36179.0
14.0 36180.0
286.0 36180.0
366.0 36180.0
1114.0 36180.0
1226.0 36180.0
1442.0 36180.0
347.0 36181.0
843.0 36181.0
26.0 36182.0
680.0 36182.0
763.0 36182.0
949.0 36182.0
62.0 36183.0
159.0 36183.0
296.0 36183.0
306.0 36183.0
708.0 36183.0
842.0 36183.0
1172.0 36183.0
157.0 36184.0
165.0 36184.0
166.0 36184.0
477.0 36184.0
591.0 36184.0
1442.0 36184.0
87.0 36185.0
334.0 36185.0
763.0 36185.0
950.0 36185.0
1390.0 36185.0
26.0 36186.0
112.0 36186.0
303.0 36186.0
599.0 36186.0
680.0 36186.0
941.0 36186.0
217.0 36187.0
841.0 36187.0
991.0 36187.0
167.0 36188.0
434.0 36188.0
744.0 36188.0
745.0 36188.0
763.0 36188.0
973.0 36188.0
1001.0 36188.0
1417.0 36188.0
1442.0 36188.0
860.0 36189.0
861.0 36189.0
1165.0 36189.0
1404.0 36189.0
26.0 36190.0
623.0 36190.0
680.0 36190.0
696.0 36190.0
718.0 36190.0
852.0 36190.0
450.0 36191.0
580.0 36191.0
714.0 36191.0
725.0 36191.0
763.0 36191.0
880.0 36191.0
1135.0 36191.0
129.0 36192.0
475.0 36192.0
605.0 36192.0
709.0 36192.0
735.0 36192.0
866.0 36192.0
1222.0 36192.0
1442.0 36192.0
258.0 36193.0
456.0 36193.0
26.0 36194.0
232.0 36194.0
347.0 36194.0
487.0 36194.0
680.0 36194.0
989.0 36194.0
1016.0 36194.0
1031.0 36194.0
763.0 36195.0
1253.0 36195.0
241.0 36196.0
607.0 36196.0
632.0 36196.0
738.0 36196.0
1068.0 36196.0
1254.0 36196.0
1442.0 36196.0
185.0 36197.0
224.0 36197.0
227.0 36197.0
328.0 36197.0
558.0 36197.0
26.0 36198.0
680.0 36198.0
736.0 36198.0
763.0 36198.0
1012.0 36198.0
1038.0 36198.0
1340.0 36198.0
599.0 36199.0
1075.0 36199.0
1105.0 36199.0
1337.0 36199.0
259.0 36200.0
366.0 36200.0
857.0 36200.0
1118.0 36200.0
1156.0 36200.0
1251.0 36200.0
1442.0 36200.0
383.0 36201.0
435.0 36201.0
734.0 36201.0
763.0 36201.0
1087.0 36201.0
26.0 36202.0
680.0 36202.0
382.0 36203.0
843.0 36203.0
1204.0 36203.0
428.0 36204.0
591.0 36204.0
763.0 36204.0
1114.0 36204.0
1226.0 36204.0
1442.0 36204.0
762.0 36205.0
866.0 36205.0
959.0 36205.0
1172.0 36205.0
1418.0 36205.0
1423.0 36205.0
26.0 36206.0
334.0 36206.0
680.0 36206.0
949.0 36206.0
112.0 36207.0
296.0 36207.0
347.0 36207.0
763.0 36207.0
1345.0 36207.0
1390.0 36207.0
14.0 36208.0
286.0 36208.0
708.0 36208.0
860.0 36208.0
1442.0 36208.0
217.0 36209.0
745.0 36209.0
1088.0 36209.0
26.0 36210.0
303.0 36210.0
680.0 36210.0
725.0 36210.0
62.0 36211.0
159.0 36211.0
306.0 36211.0
605.0 36211.0
763.0 36211.0
861.0 36211.0
880.0 36211.0
1001.0 36211.0
1165.0 36211.0
1404.0 36211.0
157.0 36212.0
166.0 36212.0
599.0 36212.0
735.0 36212.0
991.0 36212.0
1442.0 36212.0
87.0 36213.0
232.0 36213.0
477.0 36213.0
623.0 36213.0
744.0 36213.0
841.0 36213.0
842.0 36213.0
26.0 36214.0
129.0 36214.0
680.0 36214.0
718.0 36214.0
763.0 36214.0
950.0 36214.0
973.0 36214.0
241.0 36215.0
456.0 36215.0
852.0 36215.0
165.0 36216.0
258.0 36216.0
434.0 36216.0
450.0 36216.0
632.0 36216.0
696.0 36216.0
167.0 36217.0
224.0 36217.0
487.0 36217.0
709.0 36217.0
714.0 36217.0
763.0 36217.0
941.0 36217.0
1442.0 36217.0
26.0 36218.0
680.0 36218.0
736.0 36218.0
866.0 36218.0
1016.0 36218.0
1222.0 36218.0
1038.0 36219.0
328.0 36220.0
347.0 36220.0
366.0 36220.0
580.0 36220.0
763.0 36220.0
1012.0 36220.0
1253.0 36220.0
227.0 36221.0
558.0 36221.0
1417.0 36221.0
1442.0 36221.0
26.0 36222.0
466.0 36222.0
607.0 36222.0
680.0 36222.0
1156.0 36222.0
185.0 36223.0
259.0 36223.0
763.0 36223.0
1105.0 36223.0
1251.0 36223.0
468.0 36224.0
738.0 36224.0
843.0 36224.0
1068.0 36224.0
1135.0 36224.0
1254.0 36224.0
591.0 36225.0
599.0 36225.0
734.0 36225.0
857.0 36225.0
26.0 36226.0
680.0 36226.0
112.0 36227.0
334.0 36227.0
382.0 36227.0
435.0 36227.0
631.0 36227.0
763.0 36227.0
860.0 36227.0
1340.0 36227.0
1442.0 36227.0
474.0 36228.0
1075.0 36228.0
1172.0 36228.0
449.0 36229.0
1337.0 36229.0
26.0 36230.0
680.0 36230.0
725.0 36230.0
763.0 36230.0
1087.0 36230.0
1226.0 36230.0
1390.0 36230.0
217.0 36231.0
296.0 36231.0
605.0 36231.0
1114.0 36231.0
1118.0 36231.0
428.0 36232.0
708.0 36232.0
745.0 36232.0
866.0 36232.0
1442.0 36232.0
232.0 36233.0
303.0 36233.0
347.0 36233.0
763.0 36233.0
861.0 36233.0
880.0 36233.0
949.0 36233.0
26.0 36234.0
241.0 36234.0
735.0 36234.0
680.0 36235.0
1204.0 36235.0
14.0 36236.0
224.0 36236.0
286.0 36236.0
456.0 36236.0
623.0 36236.0
632.0 36236.0
763.0 36236.0
129.0 36237.0
736.0 36237.0
959.0 36237.0
1001.0 36237.0
1165.0 36237.0
1404.0 36237.0
1442.0 36237.0
26.0 36238.0
1134.0 36238.0
62.0 36239.0
258.0 36239.0
306.0 36239.0
487.0 36239.0
599.0 36239.0
680.0 36239.0
718.0 36239.0
763.0 36239.0
157.0 36240.0
159.0 36240.0
841.0 36240.0
870.0 36240.0
166.0 36241.0
366.0 36241.0
1418.0 36241.0
1423.0 36241.0
26.0 36242.0
87.0 36242.0
450.0 36242.0
477.0 36242.0
763.0 36242.0
1442.0 36242.0
328.0 36243.0
1038.0 36243.0
227.0 36244.0
696.0 36244.0
709.0 36244.0
744.0 36244.0
1012.0 36244.0
680.0 36245.0
763.0 36245.0
1016.0 36245.0
1345.0 36245.0
26.0 36246.0
259.0 36246.0
347.0 36246.0
843.0 36246.0
991.0 36246.0
1156.0 36246.0
860.0 36247.0
866.0 36247.0
1253.0 36247.0
1442.0 36247.0
112.0 36248.0
167.0 36248.0
334.0 36248.0
368.0 36248.0
607.0 36248.0
763.0 36248.0
1251.0 36248.0
591.0 36249.0
26.0 36250.0
605.0 36250.0
680.0 36250.0
852.0 36250.0
185.0 36251.0
382.0 36251.0
434.0 36251.0
763.0 36251.0
973.0 36251.0
558.0 36252.0
1442.0 36252.0
217.0 36253.0
232.0 36253.0
599.0 36253.0
612.0 36253.0
714.0 36253.0
725.0 36253.0
745.0 36253.0
1172.0 36253.0
26.0 36254.0
241.0 36254.0
377.0 36254.0
734.0 36254.0
763.0 36254.0
1148.0 36254.0
165.0 36255.0
475.0 36255.0
580.0 36255.0
680.0 36255.0
880.0 36255.0
1252.0 36255.0
1390.0 36255.0
224.0 36256.0
632.0 36256.0
861.0 36256.0
1222.0 36256.0
623.0 36257.0
708.0 36257.0
735.0 36257.0
763.0 36257.0
1105.0 36257.0
1442.0 36257.0
26.0 36258.0
601.0 36258.0
842.0 36258.0
129.0 36259.0
235.0 36259.0
296.0 36259.0
347.0 36259.0
435.0 36259.0
736.0 36259.0
1088.0 36259.0
258.0 36260.0
366.0 36260.0
456.0 36260.0
487.0 36260.0
680.0 36260.0
763.0 36260.0
303.0 36261.0
613.0 36261.0
857.0 36261.0
26.0 36262.0
762.0 36262.0
866.0 36262.0
1001.0 36262.0
1442.0 36262.0
383.0 36263.0
598.0 36263.0
763.0 36263.0
1165.0 36263.0
1404.0 36263.0
428.0 36264.0
941.0 36264.0
227.0 36265.0
328.0 36265.0
625.0 36265.0
641.0 36265.0
680.0 36265.0
950.0 36265.0
26.0 36266.0
493.0 36266.0
763.0 36266.0
841.0 36266.0
1226.0 36266.0
259.0 36267.0
599.0 36267.0
994.0 36267.0
1012.0 36267.0
1038.0 36267.0
1442.0 36267.0
112.0 36268.0
334.0 36268.0
1156.0 36268.0
1254.0 36268.0
14.0 36269.0
286.0 36269.0
605.0 36269.0
718.0 36269.0
738.0 36269.0
763.0 36269.0
843.0 36269.0
860.0 36269.0
1016.0 36269.0
1031.0 36269.0
1068.0 36269.0
26.0 36270.0
466.0 36271.0
680.0 36271.0
1114.0 36271.0
62.0 36272.0
232.0 36272.0
241.0 36272.0
306.0 36272.0
347.0 36272.0
591.0 36272.0
763.0 36272.0
1251.0 36272.0
1253.0 36272.0
1442.0 36272.0
217.0 36273.0
382.0 36273.0
478.0 36273.0
745.0 36273.0
1018.0 36273.0
26.0 36274.0
450.0 36275.0
632.0 36275.0
709.0 36275.0
744.0 36275.0
763.0 36275.0
989.0 36275.0
157.0 36276.0
159.0 36276.0
224.0 36276.0
725.0 36276.0
1014.0 36276.0
139.0 36277.0
623.0 36277.0
680.0 36277.0
726.0 36277.0
866.0 36277.0
1340.0 36277.0
1442.0 36277.0
26.0 36278.0
477.0 36278.0
615.0 36278.0
708.0 36278.0
735.0 36278.0
763.0 36278.0
880.0 36278.0
883.0 36278.0
1172.0 36278.0
166.0 36279.0
366.0 36279.0
607.0 36279.0
696.0 36279.0
754.0 36279.0
1136.0 36279.0
87.0 36280.0
496.0 36280.0
504.0 36280.0
1087.0 36280.0
1390.0 36280.0
129.0 36281.0
258.0 36281.0
487.0 36281.0
763.0 36281.0
949.0 36281.0
26.0 36282.0
599.0 36282.0
861.0 36282.0
1442.0 36282.0
680.0 36283.0
734.0 36283.0
736.0 36283.0
488.0 36284.0
581.0 36284.0
763.0 36284.0
992.0 36284.0
185.0 36285.0
558.0 36285.0
894.0 36285.0
1337.0 36285.0
26.0 36286.0
227.0 36286.0
347.0 36286.0
328.0 36287.0
334.0 36287.0
605.0 36287.0
751.0 36287.0
763.0 36287.0
1001.0 36287.0
1442.0 36287.0
112.0 36288.0
167.0 36288.0
456.0 36288.0
1075.0 36288.0
1118.0 36288.0
1165.0 36288.0
1404.0 36288.0
259.0 36289.0
680.0 36289.0
1012.0 36289.0
26.0 36290.0
241.0 36290.0
763.0 36290.0
1038.0 36290.0
232.0 36291.0
434.0 36291.0
1156.0 36291.0
296.0 36292.0
303.0 36292.0
1442.0 36292.0
217.0 36293.0
435.0 36293.0
745.0 36293.0
763.0 36293.0
866.0 36293.0
1016.0 36293.0
26.0 36294.0
860.0 36294.0
224.0 36295.0
382.0 36295.0
632.0 36295.0
680.0 36295.0
843.0 36295.0
631.0 36296.0
763.0 36296.0
1251.0 36296.0
599.0 36297.0
1442.0 36297.0
26.0 36298.0
474.0 36298.0
623.0 36298.0
841.0 36298.0
1253.0 36298.0
366.0 36299.0
580.0 36299.0
591.0 36299.0
662.0 36299.0
725.0 36299.0
763.0 36299.0
852.0 36299.0
449.0 36300.0
735.0 36300.0
880.0 36300.0
991.0 36300.0
258.0 36301.0
347.0 36301.0
680.0 36301.0
708.0 36301.0
881.0 36301.0
26.0 36302.0
129.0 36302.0
487.0 36302.0
718.0 36302.0
763.0 36302.0
1172.0 36302.0
1442.0 36302.0
468.0 36303.0
428.0 36304.0
763.0 36305.0
1134.0 36305.0
1390.0 36305.0
26.0 36306.0
334.0 36306.0
605.0 36306.0
736.0 36306.0
870.0 36306.0
973.0 36306.0
1105.0 36306.0
680.0 36307.0
861.0 36307.0
959.0 36307.0
1442.0 36307.0
112.0 36308.0
227.0 36308.0
328.0 36308.0
696.0 36308.0
714.0 36308.0
744.0 36308.0
763.0 36308.0
866.0 36308.0
14.0 36309.0
241.0 36309.0
709.0 36309.0
26.0 36310.0
232.0 36310.0
259.0 36311.0
286.0 36311.0
763.0 36311.0
475.0 36312.0
599.0 36312.0
857.0 36312.0
1001.0 36312.0
1012.0 36312.0
1442.0 36312.0
62.0 36313.0
217.0 36313.0
680.0 36313.0
734.0 36313.0
745.0 36313.0
1226.0 36313.0
1404.0 36313.0
26.0 36314.0
224.0 36314.0
456.0 36314.0
632.0 36314.0
763.0 36314.0
1038.0 36314.0
1156.0 36314.0
1165.0 36314.0
1252.0 36314.0
165.0 36315.0
347.0 36315.0
450.0 36315.0
607.0 36315.0
762.0 36315.0
1222.0 36316.0
306.0 36317.0
383.0 36317.0
763.0 36317.0
1442.0 36317.0
26.0 36318.0
157.0 36318.0
159.0 36318.0
382.0 36318.0
860.0 36318.0
1016.0 36318.0
366.0 36319.0
623.0 36319.0
680.0 36319.0
1251.0 36319.0
377.0 36320.0
763.0 36320.0
843.0 36320.0
26.0 36322.0
258.0 36322.0
735.0 36322.0
1442.0 36322.0
129.0 36323.0
725.0 36323.0
763.0 36323.0
880.0 36323.0
166.0 36324.0
487.0 36324.0
591.0 36324.0
601.0 36324.0
866.0 36324.0
87.0 36325.0
185.0 36325.0
235.0 36325.0
303.0 36325.0
605.0 36325.0
680.0 36325.0
708.0 36325.0
1114.0 36325.0
1253.0 36325.0
26.0 36326.0
334.0 36326.0
466.0 36326.0
477.0 36326.0
763.0 36326.0
241.0 36327.0
599.0 36327.0
1172.0 36327.0
1442.0 36327.0
112.0 36328.0
296.0 36328.0
558.0 36328.0
612.0 36328.0
227.0 36329.0
232.0 36329.0
435.0 36329.0
763.0 36329.0
841.0 36329.0
26.0 36330.0
328.0 36330.0
347.0 36330.0
368.0 36330.0
1390.0 36330.0
167.0 36331.0
680.0 36331.0
736.0 36331.0
224.0 36332.0
259.0 36332.0
763.0 36332.0
1254.0 36332.0
1442.0 36332.0
217.0 36333.0
493.0 36333.0
632.0 36333.0
861.0 36333.0
26.0 36334.0
745.0 36334.0
763.0 36336.0
1012.0 36336.0
680.0 36337.0
718.0 36337.0
1001.0 36337.0
1156.0 36337.0
1442.0 36337.0
26.0 36338.0
366.0 36338.0
1404.0 36338.0
434.0 36339.0
738.0 36339.0
1038.0 36339.0
734.0 36340.0
744.0 36340.0
763.0 36340.0
1165.0 36340.0
382.0 36341.0
623.0 36341.0
696.0 36341.0
866.0 36341.0
26.0 36342.0
456.0 36342.0
860.0 36342.0
1442.0 36342.0
599.0 36343.0
680.0 36343.0
580.0 36344.0
763.0 36344.0
1251.0 36344.0
258.0 36345.0
347.0 36345.0
428.0 36345.0
605.0 36345.0
26.0 36346.0
129.0 36346.0
709.0 36346.0
487.0 36347.0
763.0 36347.0
843.0 36347.0
1016.0 36347.0
1442.0 36347.0
241.0 36348.0
735.0 36348.0
880.0 36348.0
334.0 36349.0
680.0 36349.0
708.0 36349.0
725.0 36349.0
949.0 36349.0
14.0 36350.0
26.0 36350.0
232.0 36350.0
112.0 36351.0
450.0 36351.0
763.0 36351.0
607.0 36352.0
1442.0 36352.0
286.0 36353.0
328.0 36353.0
26.0 36354.0
224.0 36354.0
227.0 36354.0
62.0 36355.0
680.0 36355.0
763.0 36355.0
1340.0 36355.0
591.0 36356.0
632.0 36356.0
1105.0 36356.0
1253.0 36356.0
217.0 36357.0
259.0 36357.0
1172.0 36357.0
1442.0 36357.0
26.0 36358.0
745.0 36358.0
866.0 36358.0
763.0 36359.0
1068.0 36359.0
159.0 36360.0
599.0 36360.0
1390.0 36360.0
157.0 36361.0
303.0 36361.0
347.0 36361.0
680.0 36361.0
26.0 36362.0
306.0 36362.0
991.0 36362.0
1442.0 36362.0
296.0 36363.0
366.0 36363.0
763.0 36363.0
26.0 36366.0
185.0 36366.0
736.0 36366.0
435.0 36367.0
763.0 36367.0
1012.0 36367.0
1156.0 36367.0
1442.0 36367.0
87.0 36368.0
166.0 36368.0
382.0 36368.0
605.0 36368.0
623.0 36368.0
861.0 36368.0
680.0 36369.0
26.0 36370.0
477.0 36370.0
763.0 36371.0
258.0 36372.0
558.0 36372.0
734.0 36372.0
1404.0 36372.0
1442.0 36372.0
129.0 36373.0
241.0 36373.0
744.0 36373.0
26.0 36374.0
232.0 36374.0
487.0 36374.0
696.0 36374.0
1038.0 36374.0
1165.0 36374.0
763.0 36375.0
334.0 36376.0
1001.0 36376.0
1442.0 36376.0
112.0 36377.0
680.0 36377.0
1251.0 36377.0
26.0 36378.0
224.0 36378.0
347.0 36378.0
866.0 36378.0
880.0 36378.0
599.0 36379.0
735.0 36379.0
763.0 36379.0
708.0 36380.0
1442.0 36380.0
328.0 36381.0
718.0 36381.0
725.0 36381.0
1016.0 36381.0
26.0 36382.0
632.0 36382.0
1226.0 36382.0
227.0 36383.0
763.0 36383.0
860.0 36383.0
217.0 36384.0
259.0 36384.0
1442.0 36384.0
680.0 36385.0
745.0 36385.0
857.0 36385.0
973.0 36385.0
26.0 36386.0
763.0 36387.0
366.0 36388.0
1253.0 36388.0
1442.0 36388.0
1172.0 36389.0
26.0 36390.0
763.0 36391.0
1390.0 36391.0
167.0 36392.0
605.0 36392.0
1114.0 36392.0
1118.0 36392.0
1442.0 36392.0
680.0 36393.0
26.0 36394.0
714.0 36394.0
1222.0 36394.0
763.0 36395.0
1156.0 36395.0
1337.0 36395.0
623.0 36396.0
1012.0 36396.0
347.0 36397.0
382.0 36397.0
843.0 36397.0
866.0 36397.0
456.0 36398.0
232.0 36399.0
241.0 36399.0
599.0 36399.0
852.0 36399.0
258.0 36400.0
734.0 36400.0
744.0 36400.0
763.0 36400.0
1442.0 36400.0
