14.0 36675.0
14.0 36754.0
14.0 36819.0
14.0 36876.0
14.0 36922.0
14.0 36956.0
14.0 36984.0
26.0 36606.0
26.0 36611.0
26.0 36614.0
26.0 36619.0
26.0 36622.0
26.0 36627.0
26.0 36630.0
26.0 36635.0
26.0 36638.0
26.0 36643.0
26.0 36646.0
26.0 36651.0
26.0 36654.0
26.0 36659.0
26.0 36662.0
26.0 36667.0
26.0 36670.0
26.0 36674.0
26.0 36678.0
26.0 36682.0
26.0 36686.0
26.0 36690.0
26.0 36694.0
26.0 36698.0
26.0 36702.0
26.0 36706.0
26.0 36710.0
26.0 36714.0
26.0 36718.0
26.0 36722.0
26.0 36726.0
26.0 36730.0
26.0 36734.0
26.0 36738.0
26.0 36742.0
26.0 36746.0
26.0 36750.0
26.0 36754.0
26.0 36758.0
26.0 36762.0
26.0 36766.0
26.0 36770.0
26.0 36774.0
26.0 36778.0
26.0 36782.0
26.0 36786.0
26.0 36790.0
26.0 36794.0
26.0 36798.0
26.0 36802.0
26.0 36806.0
26.0 36810.0
26.0 36814.0
26.0 36817.0
26.0 36821.0
26.0 36825.0
26.0 36828.0
26.0 36832.0
26.0 36836.0
26.0 36840.0
26.0 36844.0
26.0 36847.0
26.0 36851.0
26.0 36855.0
26.0 36858.0
26.0 36862.0
26.0 36866.0
26.0 36870.0
26.0 36874.0
26.0 36877.0
26.0 36881.0
26.0 36885.0
26.0 36888.0
26.0 36892.0
26.0 36896.0
26.0 36900.0
26.0 36904.0
26.0 36907.0
26.0 36911.0
26.0 36915.0
26.0 36918.0
26.0 36922.0
26.0 36926.0
26.0 36930.0
26.0 36934.0
26.0 36937.0
26.0 36941.0
26.0 36944.0
26.0 36948.0
26.0 36951.0
26.0 36954.0
26.0 36957.0
26.0 36960.0
26.0 36963.0
26.0 36966.0
26.0 36969.0
26.0 36972.0
26.0 36975.0
26.0 36978.0
26.0 36981.0
26.0 36984.0
26.0 36987.0
26.0 36990.0
26.0 36993.0
26.0 36996.0
62.0 36684.0
62.0 36763.0
62.0 36827.0
62.0 36883.0
62.0 36927.0
62.0 36961.0
62.0 36990.0
85.0 36992.0
87.0 36676.0
87.0 36754.0
87.0 36819.0
87.0 36881.0
87.0 36928.0
87.0 36962.0
87.0 36991.0
96.0 36995.0
112.0 36642.0
112.0 36671.0
112.0 36703.0
112.0 36739.0
112.0 36779.0
112.0 36822.0
112.0 36861.0
112.0 36898.0
112.0 36938.0
112.0 36968.0
112.0 36994.0
129.0 36642.0
129.0 36671.0
129.0 36703.0
129.0 36738.0
129.0 36779.0
129.0 36820.0
129.0 36858.0
129.0 36895.0
129.0 36933.0
129.0 36964.0
129.0 36991.0
157.0 36684.0
157.0 36769.0
157.0 36834.0
157.0 36896.0
157.0 36940.0
157.0 36972.0
157.0 37000.0
159.0 36682.0
159.0 36753.0
159.0 36824.0
159.0 36881.0
159.0 36925.0
159.0 36961.0
159.0 36990.0
165.0 36826.0
165.0 36898.0
165.0 36949.0
165.0 36984.0
166.0 36684.0
166.0 36769.0
166.0 36833.0
166.0 36890.0
166.0 36936.0
166.0 36968.0
166.0 36996.0
167.0 36744.0
167.0 36823.0
167.0 36882.0
167.0 36929.0
167.0 36965.0
167.0 36995.0
185.0 36674.0
185.0 36745.0
185.0 36810.0
185.0 36862.0
185.0 36914.0
185.0 36951.0
185.0 36979.0
217.0 36641.0
217.0 36669.0
217.0 36701.0
217.0 36737.0
217.0 36778.0
217.0 36820.0
217.0 36860.0
217.0 36897.0
217.0 36938.0
217.0 36969.0
217.0 36998.0
224.0 36642.0
224.0 36669.0
224.0 36696.0
224.0 36728.0
224.0 36760.0
224.0 36800.0
224.0 36835.0
224.0 36870.0
224.0 36907.0
224.0 36943.0
224.0 36970.0
224.0 36995.0
227.0 36642.0
227.0 36673.0
227.0 36709.0
227.0 36747.0
227.0 36795.0
227.0 36837.0
227.0 36880.0
227.0 36921.0
227.0 36958.0
227.0 36987.0
232.0 36642.0
232.0 36666.0
232.0 36691.0
232.0 36722.0
232.0 36754.0
232.0 36792.0
232.0 36828.0
232.0 36862.0
232.0 36895.0
232.0 36929.0
232.0 36958.0
232.0 36982.0
241.0 36642.0
241.0 36667.0
241.0 36693.0
241.0 36724.0
241.0 36759.0
241.0 36796.0
241.0 36832.0
241.0 36868.0
241.0 36904.0
241.0 36941.0
241.0 36969.0
241.0 36994.0
258.0 36643.0
258.0 36672.0
258.0 36706.0
258.0 36742.0
258.0 36784.0
258.0 36826.0
258.0 36866.0
258.0 36905.0
258.0 36944.0
258.0 36974.0
259.0 36643.0
259.0 36672.0
259.0 36707.0
259.0 36745.0
259.0 36789.0
259.0 36831.0
259.0 36871.0
259.0 36912.0
259.0 36950.0
259.0 36980.0
286.0 36676.0
286.0 36748.0
286.0 36824.0
286.0 36873.0
286.0 36923.0
286.0 36960.0
286.0 36987.0
296.0 36672.0
296.0 36736.0
296.0 36791.0
296.0 36833.0
296.0 36880.0
296.0 36922.0
296.0 36953.0
296.0 36978.0
303.0 36667.0
303.0 36731.0
303.0 36787.0
303.0 36834.0
303.0 36882.0
303.0 36923.0
303.0 36956.0
303.0 36981.0
306.0 36682.0
306.0 36762.0
306.0 36832.0
306.0 36896.0
306.0 36941.0
306.0 36972.0
318.0 36994.0
328.0 36641.0
328.0 36667.0
328.0 36698.0
328.0 36732.0
328.0 36773.0
328.0 36817.0
328.0 36855.0
328.0 36893.0
328.0 36934.0
328.0 36966.0
328.0 36996.0
334.0 36642.0
334.0 36670.0
334.0 36699.0
334.0 36732.0
334.0 36771.0
334.0 36810.0
334.0 36849.0
334.0 36886.0
334.0 36922.0
334.0 36957.0
334.0 36987.0
347.0 36632.0
347.0 36651.0
347.0 36670.0
347.0 36689.0
347.0 36713.0
347.0 36735.0
347.0 36757.0
347.0 36781.0
347.0 36805.0
347.0 36829.0
347.0 36850.0
347.0 36873.0
347.0 36895.0
347.0 36919.0
347.0 36938.0
347.0 36957.0
347.0 36974.0
347.0 36991.0
366.0 36643.0
366.0 36671.0
366.0 36702.0
366.0 36737.0
366.0 36782.0
366.0 36823.0
366.0 36859.0
366.0 36896.0
366.0 36932.0
366.0 36963.0
366.0 36989.0
382.0 36644.0
382.0 36674.0
382.0 36711.0
382.0 36751.0
382.0 36800.0
382.0 36842.0
382.0 36885.0
382.0 36927.0
382.0 36963.0
382.0 36992.0
428.0 36684.0
428.0 36823.0
428.0 36887.0
428.0 36936.0
428.0 36970.0
434.0 36744.0
434.0 36819.0
434.0 36882.0
434.0 36931.0
434.0 36966.0
434.0 36995.0
435.0 36675.0
435.0 36759.0
435.0 36831.0
435.0 36882.0
435.0 36927.0
435.0 36961.0
435.0 36989.0
450.0 36660.0
450.0 36727.0
450.0 36784.0
450.0 36833.0
450.0 36886.0
450.0 36928.0
450.0 36959.0
450.0 36986.0
477.0 36763.0
477.0 36826.0
477.0 36892.0
477.0 36938.0
477.0 36969.0
477.0 36997.0
487.0 36643.0
487.0 36672.0
487.0 36706.0
487.0 36740.0
487.0 36783.0
487.0 36824.0
487.0 36864.0
487.0 36900.0
487.0 36939.0
487.0 36968.0
487.0 36995.0
558.0 36680.0
558.0 36760.0
558.0 36828.0
558.0 36883.0
558.0 36927.0
558.0 36960.0
558.0 36985.0
580.0 36767.0
580.0 36839.0
580.0 36903.0
580.0 36947.0
580.0 36978.0
591.0 36682.0
599.0 36633.0
599.0 36652.0
599.0 36673.0
599.0 36695.0
599.0 36720.0
599.0 36743.0
599.0 36768.0
599.0 36793.0
599.0 36818.0
599.0 36841.0
599.0 36865.0
599.0 36889.0
599.0 36912.0
599.0 36933.0
599.0 36953.0
599.0 36971.0
599.0 36989.0
605.0 36642.0
605.0 36667.0
605.0 36692.0
605.0 36723.0
605.0 36755.0
605.0 36795.0
605.0 36831.0
605.0 36867.0
605.0 36902.0
605.0 36940.0
605.0 36968.0
605.0 36993.0
607.0 36676.0
607.0 36755.0
607.0 36826.0
607.0 36883.0
607.0 36931.0
607.0 36964.0
607.0 36992.0
623.0 36643.0
623.0 36670.0
623.0 36703.0
623.0 36738.0
623.0 36780.0
623.0 36823.0
623.0 36863.0
623.0 36900.0
623.0 36937.0
623.0 36967.0
623.0 36995.0
632.0 36642.0
632.0 36668.0
632.0 36698.0
632.0 36730.0
632.0 36768.0
632.0 36809.0
632.0 36845.0
632.0 36881.0
632.0 36917.0
632.0 36950.0
632.0 36977.0
680.0 36609.0
680.0 36615.0
680.0 36621.0
680.0 36628.0
680.0 36636.0
680.0 36644.0
680.0 36652.0
680.0 36660.0
680.0 36668.0
680.0 36677.0
680.0 36687.0
680.0 36697.0
680.0 36707.0
680.0 36715.0
680.0 36723.0
680.0 36731.0
680.0 36739.0
680.0 36747.0
680.0 36755.0
680.0 36763.0
680.0 36771.0
680.0 36779.0
680.0 36787.0
680.0 36795.0
680.0 36803.0
680.0 36811.0
680.0 36819.0
680.0 36827.0
680.0 36835.0
680.0 36843.0
680.0 36851.0
680.0 36859.0
680.0 36867.0
680.0 36875.0
680.0 36883.0
680.0 36891.0
680.0 36899.0
680.0 36907.0
680.0 36913.0
680.0 36919.0
680.0 36925.0
680.0 36931.0
680.0 36937.0
680.0 36943.0
680.0 36949.0
680.0 36955.0
680.0 36961.0
680.0 36967.0
680.0 36973.0
680.0 36979.0
680.0 36985.0
680.0 36991.0
696.0 36644.0
696.0 36671.0
696.0 36698.0
696.0 36724.0
696.0 36752.0
696.0 36780.0
696.0 36808.0
696.0 36834.0
696.0 36861.0
696.0 36887.0
696.0 36913.0
696.0 36940.0
696.0 36964.0
696.0 36984.0
708.0 36646.0
708.0 36677.0
708.0 36717.0
708.0 36760.0
708.0 36814.0
708.0 36861.0
708.0 36910.0
708.0 36954.0
708.0 36987.0
709.0 36681.0
709.0 36752.0
709.0 36823.0
709.0 36881.0
709.0 36924.0
709.0 36958.0
709.0 36986.0
714.0 36684.0
714.0 36754.0
714.0 36827.0
714.0 36898.0
714.0 36943.0
714.0 36986.0
718.0 36674.0
718.0 36744.0
718.0 36816.0
718.0 36865.0
718.0 36913.0
718.0 36950.0
718.0 36977.0
725.0 36646.0
725.0 36674.0
725.0 36707.0
725.0 36740.0
725.0 36783.0
725.0 36825.0
725.0 36866.0
725.0 36905.0
725.0 36945.0
725.0 36982.0
734.0 36644.0
734.0 36673.0
734.0 36698.0
734.0 36726.0
734.0 36752.0
734.0 36778.0
734.0 36806.0
734.0 36831.0
734.0 36855.0
734.0 36882.0
734.0 36906.0
734.0 36930.0
734.0 36954.0
734.0 36974.0
734.0 36994.0
735.0 36643.0
735.0 36670.0
735.0 36701.0
735.0 36736.0
735.0 36775.0
735.0 36818.0
735.0 36859.0
735.0 36901.0
735.0 36942.0
735.0 36982.0
736.0 36674.0
736.0 36991.0
738.0 36731.0
738.0 36811.0
738.0 36891.0
738.0 36939.0
738.0 36985.0
744.0 36644.0
744.0 36673.0
744.0 36700.0
744.0 36727.0
744.0 36753.0
744.0 36783.0
744.0 36810.0
744.0 36835.0
744.0 36862.0
744.0 36887.0
744.0 36913.0
744.0 36941.0
744.0 36964.0
744.0 36986.0
745.0 36643.0
745.0 36670.0
745.0 36703.0
745.0 36738.0
745.0 36780.0
745.0 36822.0
745.0 36863.0
745.0 36902.0
745.0 36942.0
745.0 36972.0
745.0 36999.0
763.0 36606.0
763.0 36611.0
763.0 36616.0
763.0 36620.0
763.0 36624.0
763.0 36628.0
763.0 36632.0
763.0 36636.0
763.0 36640.0
763.0 36644.0
763.0 36648.0
763.0 36652.0
763.0 36656.0
763.0 36660.0
763.0 36664.0
763.0 36668.0
763.0 36672.0
763.0 36676.0
763.0 36681.0
763.0 36685.0
763.0 36691.0
763.0 36696.0
763.0 36701.0
763.0 36706.0
763.0 36711.0
763.0 36716.0
763.0 36721.0
763.0 36726.0
763.0 36731.0
763.0 36736.0
763.0 36741.0
763.0 36747.0
763.0 36753.0
763.0 36759.0
763.0 36765.0
763.0 36771.0
763.0 36777.0
763.0 36783.0
763.0 36789.0
763.0 36795.0
763.0 36801.0
763.0 36807.0
763.0 36813.0
763.0 36819.0
763.0 36825.0
763.0 36831.0
763.0 36837.0
763.0 36843.0
763.0 36849.0
763.0 36855.0
763.0 36861.0
763.0 36867.0
763.0 36873.0
763.0 36879.0
763.0 36885.0
763.0 36891.0
763.0 36897.0
763.0 36903.0
763.0 36909.0
763.0 36915.0
763.0 36921.0
763.0 36927.0
763.0 36933.0
763.0 36939.0
763.0 36945.0
763.0 36951.0
763.0 36957.0
763.0 36963.0
763.0 36969.0
763.0 36975.0
763.0 36981.0
763.0 36987.0
763.0 36993.0
842.0 36769.0
842.0 36889.0
842.0 36941.0
842.0 36994.0
843.0 36675.0
852.0 36683.0
852.0 36792.0
852.0 36890.0
852.0 36938.0
852.0 36983.0
857.0 36676.0
857.0 36737.0
857.0 36793.0
857.0 36841.0
857.0 36901.0
857.0 36944.0
857.0 36981.0
860.0 36673.0
860.0 36950.0
861.0 36676.0
866.0 36634.0
866.0 36653.0
866.0 36673.0
866.0 36693.0
866.0 36716.0
866.0 36738.0
866.0 36761.0
866.0 36786.0
866.0 36810.0
866.0 36833.0
866.0 36857.0
866.0 36881.0
866.0 36905.0
866.0 36927.0
866.0 36949.0
866.0 36969.0
866.0 36990.0
880.0 36646.0
880.0 36674.0
880.0 36707.0
880.0 36742.0
880.0 36785.0
880.0 36826.0
880.0 36867.0
880.0 36906.0
880.0 36945.0
880.0 36982.0
941.0 36775.0
941.0 36918.0
941.0 36967.0
949.0 36683.0
949.0 36744.0
949.0 36810.0
949.0 36872.0
949.0 36920.0
949.0 36958.0
949.0 36995.0
950.0 36865.0
950.0 36929.0
950.0 36977.0
959.0 36738.0
959.0 36825.0
959.0 36898.0
959.0 36945.0
959.0 36990.0
973.0 36680.0
973.0 36752.0
973.0 36824.0
973.0 36880.0
973.0 36929.0
973.0 36972.0
991.0 36676.0
991.0 36745.0
991.0 36825.0
991.0 36898.0
991.0 36943.0
991.0 36984.0
1001.0 36644.0
1001.0 36674.0
1001.0 36710.0
1001.0 36748.0
1001.0 36793.0
1001.0 36841.0
1001.0 36889.0
1001.0 36937.0
1001.0 36991.0
1012.0 36643.0
1012.0 36671.0
1012.0 36704.0
1012.0 36739.0
1012.0 36780.0
1012.0 36823.0
1012.0 36865.0
1012.0 36906.0
1012.0 36945.0
1012.0 36986.0
1016.0 36646.0
1016.0 36675.0
1016.0 36709.0
1016.0 36746.0
1016.0 36790.0
1016.0 36837.0
1016.0 36882.0
1016.0 36929.0
1016.0 36975.0
1038.0 36643.0
1038.0 36671.0
1038.0 36704.0
1038.0 36739.0
1038.0 36782.0
1038.0 36826.0
1038.0 36867.0
1038.0 36908.0
1038.0 36950.0
1038.0 36990.0
1068.0 36735.0
1068.0 36822.0
1068.0 36903.0
1068.0 36947.0
1068.0 36990.0
1075.0 36730.0
1075.0 36818.0
1075.0 36906.0
1075.0 36954.0
1075.0 36998.0
1087.0 36761.0
1087.0 36895.0
1087.0 36946.0
1087.0 36993.0
1088.0 36745.0
1088.0 36833.0
1088.0 36917.0
1088.0 36965.0
1105.0 36668.0
1105.0 36737.0
1105.0 36792.0
1105.0 36844.0
1105.0 36898.0
1105.0 36937.0
1105.0 36973.0
1114.0 36683.0
1114.0 36756.0
1114.0 36827.0
1114.0 36889.0
1114.0 36935.0
1114.0 36972.0
1118.0 36753.0
1118.0 36836.0
1118.0 36900.0
1118.0 36944.0
1118.0 36990.0
1135.0 36787.0
1135.0 36900.0
1135.0 36956.0
1156.0 36643.0
1156.0 36671.0
1156.0 36704.0
1156.0 36740.0
1156.0 36785.0
1156.0 36828.0
1156.0 36872.0
1156.0 36916.0
1156.0 36961.0
1165.0 36643.0
1165.0 36672.0
1165.0 36706.0
1165.0 36744.0
1165.0 36792.0
1165.0 36841.0
1165.0 36889.0
1165.0 36933.0
1165.0 36978.0
1172.0 36642.0
1172.0 36669.0
1172.0 36701.0
1172.0 36737.0
1172.0 36781.0
1172.0 36825.0
1172.0 36869.0
1172.0 36910.0
1172.0 36955.0
1172.0 36998.0
1204.0 36761.0
1204.0 36841.0
1204.0 36921.0
1204.0 36967.0
1222.0 36684.0
1222.0 36758.0
1222.0 36828.0
1222.0 36892.0
1222.0 36937.0
1222.0 36976.0
1226.0 36676.0
1226.0 36744.0
1226.0 36800.0
1226.0 36849.0
1226.0 36904.0
1226.0 36947.0
1226.0 36985.0
1251.0 36643.0
1251.0 36671.0
1251.0 36703.0
1251.0 36738.0
1251.0 36783.0
1251.0 36827.0
1251.0 36871.0
1251.0 36915.0
1251.0 36958.0
1251.0 36999.0
1253.0 36644.0
1253.0 36674.0
1253.0 36712.0
1253.0 36753.0
1253.0 36800.0
1253.0 36848.0
1253.0 36899.0
1253.0 36947.0
1253.0 36999.0
1254.0 36740.0
1254.0 36820.0
1254.0 36883.0
1254.0 36935.0
1254.0 36979.0
1337.0 36687.0
1337.0 36762.0
1337.0 36833.0
1337.0 36899.0
1337.0 36943.0
1337.0 36985.0
1340.0 36739.0
1340.0 36809.0
1340.0 36883.0
1340.0 36932.0
1340.0 36975.0
1345.0 36763.0
1345.0 36850.0
1345.0 36925.0
1345.0 36971.0
1390.0 36643.0
1390.0 36671.0
1390.0 36707.0
1390.0 36743.0
1390.0 36787.0
1390.0 36831.0
1390.0 36875.0
1390.0 36921.0
1390.0 36964.0
1404.0 36646.0
1404.0 36674.0
1404.0 36709.0
1404.0 36745.0
1404.0 36790.0
1404.0 36834.0
1404.0 36879.0
1404.0 36922.0
1404.0 36966.0
1417.0 36920.0
1417.0 36980.0
1418.0 36748.0
1418.0 36834.0
1418.0 36925.0
1418.0 36973.0
1423.0 36747.0
1423.0 36835.0
1423.0 36915.0
1423.0 36963.0
1442.0 36607.0
1442.0 36612.0
1442.0 36616.0
1442.0 36620.0
1442.0 36624.0
1442.0 36628.0
1442.0 36632.0
1442.0 36636.0
1442.0 36640.0
1442.0 36644.0
1442.0 36648.0
1442.0 36652.0
1442.0 36656.0
1442.0 36660.0
1442.0 36664.0
1442.0 36668.0
1442.0 36672.0
1442.0 36676.0
1442.0 36680.0
1442.0 36684.0
1442.0 36688.0
1442.0 36692.0
1442.0 36696.0
1442.0 36700.0
1442.0 36704.0
1442.0 36708.0
1442.0 36712.0
1442.0 36716.0
1442.0 36720.0
1442.0 36724.0
1442.0 36728.0
1442.0 36732.0
1442.0 36736.0
1442.0 36740.0
1442.0 36744.0
1442.0 36748.0
1442.0 36752.0
1442.0 36756.0
1442.0 36760.0
1442.0 36764.0
1442.0 36768.0
1442.0 36772.0
1442.0 36776.0
1442.0 36780.0
1442.0 36784.0
1442.0 36788.0
1442.0 36792.0
1442.0 36796.0
1442.0 36800.0
1442.0 36804.0
1442.0 36808.0
1442.0 36812.0
1442.0 36816.0
1442.0 36820.0
1442.0 36824.0
1442.0 36828.0
1442.0 36832.0
1442.0 36836.0
1442.0 36840.0
1442.0 36844.0
1442.0 36848.0
1442.0 36852.0
1442.0 36856.0
1442.0 36860.0
1442.0 36864.0
1442.0 36868.0
1442.0 36872.0
1442.0 36876.0
1442.0 36880.0
1442.0 36884.0
1442.0 36888.0
1442.0 36892.0
1442.0 36896.0
1442.0 36900.0
1442.0 36904.0
1442.0 36908.0
1442.0 36912.0
1442.0 36916.0
1442.0 36920.0
1442.0 36924.0
1442.0 36928.0
1442.0 36932.0
1442.0 36936.0
1442.0 36940.0
1442.0 36944.0
1442.0 36948.0
1442.0 36952.0
1442.0 36956.0
1442.0 36960.0
1442.0 36964.0
1442.0 36968.0
1442.0 36972.0
1442.0 36976.0
1442.0 36980.0
1442.0 36984.0
1442.0 36988.0
1442.0 36992.0
1442.0 36996.0
