14.0 37251.0
14.0 37288.0
14.0 37325.0
14.0 37368.0
14.0 37413.0
14.0 37456.0
14.0 37498.0
14.0 37540.0
26.0 37206.0
26.0 37210.0
26.0 37214.0
26.0 37217.0
26.0 37221.0
26.0 37224.0
26.0 37228.0
26.0 37232.0
26.0 37236.0
26.0 37240.0
26.0 37243.0
26.0 37247.0
26.0 37251.0
26.0 37254.0
26.0 37258.0
26.0 37262.0
26.0 37266.0
26.0 37270.0
26.0 37273.0
26.0 37277.0
26.0 37281.0
26.0 37284.0
26.0 37288.0
26.0 37292.0
26.0 37296.0
26.0 37300.0
26.0 37303.0
26.0 37307.0
26.0 37311.0
26.0 37314.0
26.0 37318.0
26.0 37322.0
26.0 37326.0
26.0 37330.0
26.0 37334.0
26.0 37338.0
26.0 37342.0
26.0 37346.0
26.0 37350.0
26.0 37354.0
26.0 37358.0
26.0 37362.0
26.0 37366.0
26.0 37370.0
26.0 37374.0
26.0 37378.0
26.0 37382.0
26.0 37386.0
26.0 37390.0
26.0 37394.0
26.0 37398.0
26.0 37402.0
26.0 37406.0
26.0 37410.0
26.0 37414.0
26.0 37418.0
26.0 37422.0
26.0 37426.0
26.0 37430.0
26.0 37434.0
26.0 37438.0
26.0 37442.0
26.0 37446.0
26.0 37450.0
26.0 37454.0
26.0 37458.0
26.0 37462.0
26.0 37466.0
26.0 37470.0
26.0 37474.0
26.0 37478.0
26.0 37482.0
26.0 37486.0
26.0 37490.0
26.0 37494.0
26.0 37498.0
26.0 37502.0
26.0 37506.0
26.0 37510.0
26.0 37514.0
26.0 37518.0
26.0 37522.0
26.0 37526.0
26.0 37530.0
26.0 37534.0
26.0 37538.0
26.0 37542.0
26.0 37546.0
26.0 37550.0
26.0 37554.0
26.0 37558.0
26.0 37562.0
26.0 37567.0
26.0 37571.0
26.0 37577.0
26.0 37582.0
26.0 37587.0
26.0 37592.0
62.0 37252.0
62.0 37292.0
62.0 37334.0
62.0 37379.0
62.0 37424.0
62.0 37468.0
62.0 37515.0
62.0 37559.0
87.0 37253.0
87.0 37294.0
87.0 37337.0
87.0 37385.0
87.0 37437.0
87.0 37486.0
87.0 37533.0
112.0 37245.0
112.0 37276.0
112.0 37306.0
112.0 37339.0
112.0 37375.0
112.0 37417.0
112.0 37459.0
112.0 37500.0
112.0 37542.0
129.0 37246.0
129.0 37279.0
129.0 37310.0
129.0 37345.0
129.0 37381.0
129.0 37423.0
129.0 37465.0
129.0 37506.0
129.0 37547.0
157.0 37256.0
157.0 37294.0
157.0 37334.0
157.0 37377.0
157.0 37424.0
157.0 37472.0
157.0 37517.0
157.0 37563.0
159.0 37253.0
159.0 37291.0
159.0 37329.0
159.0 37373.0
159.0 37417.0
159.0 37461.0
159.0 37507.0
159.0 37552.0
165.0 37263.0
165.0 37312.0
165.0 37365.0
165.0 37420.0
165.0 37479.0
165.0 37539.0
166.0 37252.0
166.0 37292.0
166.0 37334.0
166.0 37379.0
166.0 37424.0
166.0 37468.0
166.0 37514.0
166.0 37559.0
167.0 37256.0
167.0 37297.0
167.0 37339.0
167.0 37383.0
167.0 37429.0
167.0 37476.0
167.0 37520.0
167.0 37567.0
185.0 37251.0
185.0 37287.0
185.0 37323.0
185.0 37365.0
185.0 37407.0
185.0 37449.0
185.0 37491.0
185.0 37529.0
185.0 37571.0
217.0 37245.0
217.0 37277.0
217.0 37309.0
217.0 37341.0
217.0 37375.0
217.0 37418.0
217.0 37462.0
217.0 37505.0
217.0 37551.0
224.0 37246.0
224.0 37276.0
224.0 37305.0
224.0 37336.0
224.0 37369.0
224.0 37408.0
224.0 37448.0
224.0 37488.0
224.0 37528.0
224.0 37566.0
227.0 37246.0
227.0 37279.0
227.0 37314.0
227.0 37353.0
227.0 37393.0
227.0 37441.0
227.0 37489.0
227.0 37537.0
232.0 37245.0
232.0 37274.0
232.0 37304.0
232.0 37334.0
232.0 37365.0
232.0 37403.0
232.0 37441.0
232.0 37481.0
232.0 37520.0
232.0 37559.0
241.0 37246.0
241.0 37275.0
241.0 37305.0
241.0 37335.0
241.0 37366.0
241.0 37404.0
241.0 37445.0
241.0 37483.0
241.0 37523.0
241.0 37562.0
258.0 37248.0
258.0 37282.0
258.0 37314.0
258.0 37348.0
258.0 37384.0
258.0 37428.0
258.0 37475.0
258.0 37523.0
258.0 37567.0
259.0 37247.0
259.0 37282.0
259.0 37317.0
259.0 37352.0
259.0 37391.0
259.0 37437.0
259.0 37481.0
259.0 37527.0
286.0 37253.0
286.0 37290.0
286.0 37327.0
286.0 37369.0
286.0 37412.0
286.0 37454.0
286.0 37496.0
286.0 37544.0
296.0 37250.0
296.0 37285.0
296.0 37319.0
296.0 37357.0
296.0 37395.0
296.0 37435.0
296.0 37476.0
296.0 37518.0
296.0 37555.0
303.0 37251.0
303.0 37283.0
303.0 37318.0
303.0 37355.0
303.0 37392.0
303.0 37431.0
303.0 37469.0
303.0 37507.0
303.0 37545.0
303.0 37600.0
306.0 37255.0
306.0 37293.0
306.0 37334.0
306.0 37378.0
306.0 37423.0
306.0 37467.0
306.0 37513.0
306.0 37556.0
328.0 37245.0
328.0 37279.0
328.0 37314.0
328.0 37350.0
328.0 37386.0
328.0 37429.0
328.0 37475.0
328.0 37523.0
328.0 37574.0
334.0 37246.0
334.0 37277.0
334.0 37309.0
334.0 37344.0
334.0 37379.0
334.0 37425.0
334.0 37470.0
334.0 37513.0
334.0 37554.0
347.0 37232.0
347.0 37252.0
347.0 37269.0
347.0 37288.0
347.0 37306.0
347.0 37325.0
347.0 37343.0
347.0 37362.0
347.0 37381.0
347.0 37401.0
347.0 37422.0
347.0 37443.0
347.0 37464.0
347.0 37485.0
347.0 37506.0
347.0 37527.0
347.0 37548.0
347.0 37569.0
347.0 37595.0
366.0 37247.0
366.0 37278.0
366.0 37311.0
366.0 37343.0
366.0 37378.0
366.0 37422.0
366.0 37467.0
366.0 37511.0
366.0 37552.0
382.0 37248.0
382.0 37283.0
382.0 37318.0
382.0 37357.0
382.0 37401.0
382.0 37449.0
382.0 37497.0
382.0 37545.0
428.0 37257.0
428.0 37296.0
428.0 37338.0
428.0 37386.0
428.0 37436.0
428.0 37488.0
428.0 37537.0
434.0 37253.0
434.0 37294.0
434.0 37340.0
434.0 37389.0
434.0 37437.0
434.0 37485.0
434.0 37528.0
434.0 37582.0
435.0 37252.0
435.0 37287.0
435.0 37323.0
435.0 37369.0
435.0 37412.0
435.0 37455.0
435.0 37501.0
435.0 37545.0
450.0 37249.0
450.0 37284.0
450.0 37317.0
450.0 37356.0
450.0 37395.0
450.0 37435.0
450.0 37476.0
450.0 37518.0
450.0 37560.0
456.0 37346.0
477.0 37253.0
477.0 37292.0
477.0 37331.0
477.0 37374.0
477.0 37419.0
477.0 37463.0
477.0 37510.0
477.0 37554.0
487.0 37246.0
487.0 37278.0
487.0 37309.0
487.0 37343.0
487.0 37379.0
487.0 37424.0
487.0 37467.0
487.0 37509.0
487.0 37551.0
558.0 37254.0
558.0 37290.0
558.0 37328.0
558.0 37373.0
558.0 37417.0
558.0 37463.0
558.0 37506.0
558.0 37548.0
580.0 37255.0
580.0 37296.0
580.0 37340.0
580.0 37387.0
580.0 37435.0
580.0 37483.0
580.0 37531.0
591.0 37275.0
591.0 37370.0
599.0 37233.0
599.0 37253.0
599.0 37272.0
599.0 37292.0
599.0 37312.0
599.0 37332.0
599.0 37352.0
599.0 37372.0
599.0 37394.0
599.0 37416.0
599.0 37438.0
599.0 37461.0
599.0 37484.0
599.0 37505.0
599.0 37527.0
599.0 37548.0
599.0 37570.0
599.0 37594.0
605.0 37245.0
605.0 37275.0
605.0 37304.0
605.0 37333.0
605.0 37363.0
605.0 37399.0
605.0 37439.0
605.0 37480.0
605.0 37519.0
605.0 37559.0
607.0 37253.0
607.0 37289.0
607.0 37324.0
607.0 37365.0
607.0 37404.0
607.0 37447.0
607.0 37492.0
607.0 37539.0
623.0 37247.0
623.0 37279.0
623.0 37311.0
623.0 37345.0
623.0 37381.0
623.0 37425.0
623.0 37472.0
623.0 37520.0
623.0 37564.0
632.0 37246.0
632.0 37277.0
632.0 37306.0
632.0 37337.0
632.0 37368.0
632.0 37406.0
632.0 37447.0
632.0 37489.0
632.0 37526.0
632.0 37564.0
680.0 37209.0
680.0 37215.0
680.0 37221.0
680.0 37227.0
680.0 37233.0
680.0 37239.0
680.0 37245.0
680.0 37251.0
680.0 37257.0
680.0 37263.0
680.0 37269.0
680.0 37275.0
680.0 37281.0
680.0 37287.0
680.0 37293.0
680.0 37299.0
680.0 37305.0
680.0 37311.0
680.0 37317.0
680.0 37323.0
680.0 37329.0
680.0 37335.0
680.0 37341.0
680.0 37347.0
680.0 37353.0
680.0 37359.0
680.0 37365.0
680.0 37371.0
680.0 37377.0
680.0 37383.0
680.0 37389.0
680.0 37395.0
680.0 37401.0
680.0 37407.0
680.0 37413.0
680.0 37419.0
680.0 37425.0
680.0 37431.0
680.0 37437.0
680.0 37443.0
680.0 37449.0
680.0 37455.0
680.0 37461.0
680.0 37467.0
680.0 37473.0
680.0 37479.0
680.0 37485.0
680.0 37491.0
680.0 37497.0
680.0 37503.0
680.0 37509.0
680.0 37515.0
680.0 37521.0
680.0 37527.0
680.0 37533.0
680.0 37539.0
680.0 37545.0
680.0 37551.0
680.0 37557.0
680.0 37563.0
680.0 37569.0
680.0 37575.0
680.0 37581.0
680.0 37587.0
680.0 37593.0
696.0 37242.0
696.0 37273.0
696.0 37309.0
696.0 37350.0
696.0 37392.0
696.0 37434.0
696.0 37476.0
696.0 37512.0
696.0 37540.0
696.0 37568.0
708.0 37250.0
708.0 37287.0
708.0 37324.0
708.0 37365.0
708.0 37416.0
708.0 37469.0
708.0 37520.0
709.0 37255.0
709.0 37291.0
709.0 37332.0
709.0 37376.0
709.0 37422.0
709.0 37465.0
709.0 37508.0
709.0 37549.0
714.0 37270.0
714.0 37518.0
714.0 37562.0
718.0 37251.0
718.0 37287.0
718.0 37324.0
718.0 37364.0
718.0 37406.0
718.0 37448.0
718.0 37489.0
718.0 37528.0
718.0 37568.0
725.0 37251.0
725.0 37296.0
725.0 37512.0
725.0 37550.0
725.0 37587.0
734.0 37242.0
734.0 37270.0
734.0 37298.0
734.0 37336.0
734.0 37374.0
734.0 37416.0
734.0 37458.0
734.0 37495.0
734.0 37523.0
734.0 37550.0
734.0 37575.0
735.0 37250.0
735.0 37295.0
735.0 37357.0
735.0 37505.0
735.0 37547.0
735.0 37587.0
736.0 37271.0
736.0 37329.0
736.0 37564.0
738.0 37295.0
738.0 37516.0
738.0 37559.0
744.0 37242.0
744.0 37271.0
744.0 37307.0
744.0 37349.0
744.0 37393.0
744.0 37440.0
744.0 37484.0
744.0 37516.0
744.0 37544.0
744.0 37570.0
745.0 37247.0
745.0 37280.0
745.0 37311.0
745.0 37345.0
745.0 37381.0
745.0 37424.0
745.0 37468.0
745.0 37513.0
745.0 37556.0
763.0 37207.0
763.0 37213.0
763.0 37218.0
763.0 37223.0
763.0 37228.0
763.0 37233.0
763.0 37238.0
763.0 37243.0
763.0 37248.0
763.0 37253.0
763.0 37258.0
763.0 37263.0
763.0 37268.0
763.0 37273.0
763.0 37278.0
763.0 37283.0
763.0 37288.0
763.0 37293.0
763.0 37298.0
763.0 37303.0
763.0 37308.0
763.0 37313.0
763.0 37318.0
763.0 37323.0
763.0 37328.0
763.0 37333.0
763.0 37338.0
763.0 37343.0
763.0 37348.0
763.0 37353.0
763.0 37358.0
763.0 37363.0
763.0 37368.0
763.0 37373.0
763.0 37379.0
763.0 37385.0
763.0 37391.0
763.0 37397.0
763.0 37403.0
763.0 37409.0
763.0 37415.0
763.0 37421.0
763.0 37427.0
763.0 37433.0
763.0 37439.0
763.0 37445.0
763.0 37451.0
763.0 37457.0
763.0 37463.0
763.0 37469.0
763.0 37475.0
763.0 37481.0
763.0 37487.0
763.0 37493.0
763.0 37499.0
763.0 37505.0
763.0 37511.0
763.0 37517.0
763.0 37523.0
763.0 37529.0
763.0 37535.0
763.0 37541.0
763.0 37547.0
763.0 37553.0
763.0 37559.0
763.0 37565.0
763.0 37571.0
763.0 37577.0
763.0 37583.0
763.0 37589.0
763.0 37595.0
842.0 37521.0
842.0 37573.0
843.0 37285.0
843.0 37346.0
852.0 37519.0
852.0 37567.0
857.0 37259.0
857.0 37513.0
857.0 37550.0
857.0 37583.0
860.0 37263.0
860.0 37322.0
860.0 37383.0
860.0 37515.0
861.0 37287.0
861.0 37352.0
866.0 37235.0
866.0 37255.0
866.0 37276.0
866.0 37299.0
866.0 37324.0
866.0 37349.0
866.0 37374.0
866.0 37402.0
866.0 37432.0
866.0 37462.0
866.0 37489.0
866.0 37514.0
866.0 37534.0
866.0 37557.0
866.0 37577.0
866.0 37599.0
880.0 37254.0
880.0 37296.0
880.0 37356.0
880.0 37514.0
880.0 37554.0
880.0 37598.0
941.0 37524.0
941.0 37574.0
949.0 37261.0
949.0 37514.0
949.0 37555.0
949.0 37594.0
950.0 37519.0
950.0 37573.0
959.0 37294.0
959.0 37514.0
959.0 37557.0
973.0 37263.0
973.0 37513.0
973.0 37555.0
973.0 37597.0
991.0 37269.0
991.0 37516.0
991.0 37560.0
1001.0 37255.0
1001.0 37521.0
1001.0 37570.0
1012.0 37251.0
1012.0 37301.0
1012.0 37515.0
1012.0 37558.0
1016.0 37254.0
1016.0 37519.0
1016.0 37566.0
1038.0 37251.0
1038.0 37307.0
1038.0 37516.0
1038.0 37559.0
1068.0 37297.0
1068.0 37519.0
1068.0 37563.0
1075.0 37519.0
1075.0 37567.0
1087.0 37521.0
1087.0 37569.0
1088.0 37519.0
1088.0 37566.0
1105.0 37257.0
1105.0 37498.0
1105.0 37537.0
1105.0 37574.0
1114.0 37262.0
1114.0 37512.0
1114.0 37555.0
1118.0 37294.0
1118.0 37515.0
1118.0 37560.0
1135.0 37521.0
1135.0 37572.0
1156.0 37251.0
1156.0 37318.0
1156.0 37516.0
1156.0 37561.0
1165.0 37251.0
1165.0 37302.0
1165.0 37514.0
1165.0 37557.0
1172.0 37249.0
1172.0 37302.0
1172.0 37515.0
1172.0 37558.0
1204.0 37517.0
1204.0 37562.0
1222.0 37264.0
1222.0 37516.0
1222.0 37557.0
1222.0 37600.0
1226.0 37261.0
1226.0 37503.0
1226.0 37544.0
1226.0 37581.0
1251.0 37252.0
1251.0 37335.0
1251.0 37517.0
1251.0 37560.0
1253.0 37253.0
1253.0 37354.0
1253.0 37517.0
1253.0 37564.0
1254.0 37515.0
1254.0 37559.0
1337.0 37277.0
1337.0 37512.0
1337.0 37557.0
1337.0 37600.0
1340.0 37515.0
1340.0 37562.0
1345.0 37515.0
1345.0 37559.0
1390.0 37254.0
1390.0 37360.0
1390.0 37515.0
1390.0 37559.0
1404.0 37254.0
1404.0 37518.0
1404.0 37565.0
1417.0 37524.0
1417.0 37576.0
1418.0 37517.0
1418.0 37564.0
1423.0 37516.0
1423.0 37563.0
1442.0 37207.0
1442.0 37212.0
1442.0 37216.0
1442.0 37220.0
1442.0 37224.0
1442.0 37228.0
1442.0 37232.0
1442.0 37236.0
1442.0 37240.0
1442.0 37244.0
1442.0 37249.0
1442.0 37253.0
1442.0 37259.0
1442.0 37264.0
1442.0 37269.0
1442.0 37274.0
1442.0 37279.0
1442.0 37284.0
1442.0 37289.0
1442.0 37295.0
1442.0 37301.0
1442.0 37307.0
1442.0 37313.0
1442.0 37319.0
1442.0 37325.0
1442.0 37331.0
1442.0 37337.0
1442.0 37343.0
1442.0 37349.0
1442.0 37355.0
1442.0 37361.0
1442.0 37367.0
1442.0 37373.0
1442.0 37379.0
1442.0 37385.0
1442.0 37391.0
1442.0 37397.0
1442.0 37403.0
1442.0 37409.0
1442.0 37415.0
1442.0 37421.0
1442.0 37427.0
1442.0 37433.0
1442.0 37439.0
1442.0 37445.0
1442.0 37451.0
1442.0 37457.0
1442.0 37463.0
1442.0 37469.0
1442.0 37474.0
1442.0 37479.0
1442.0 37484.0
1442.0 37489.0
1442.0 37494.0
1442.0 37499.0
1442.0 37504.0
1442.0 37508.0
1442.0 37512.0
1442.0 37516.0
1442.0 37520.0
1442.0 37524.0
1442.0 37528.0
1442.0 37532.0
1442.0 37536.0
1442.0 37540.0
1442.0 37544.0
1442.0 37548.0
1442.0 37552.0
1442.0 37556.0
1442.0 37560.0
1442.0 37564.0
1442.0 37568.0
1442.0 37572.0
1442.0 37576.0
1442.0 37580.0
1442.0 37584.0
1442.0 37588.0
1442.0 37592.0
1442.0 37596.0
