26.0 39607.0
763.0 39607.0
680.0 39609.0
1442.0 39609.0
26.0 39612.0
763.0 39612.0
680.0 39615.0
1442.0 39615.0
26.0 39616.0
763.0 39616.0
26.0 39620.0
763.0 39620.0
680.0 39621.0
1442.0 39621.0
26.0 39624.0
763.0 39624.0
680.0 39627.0
1442.0 39627.0
26.0 39628.0
763.0 39628.0
26.0 39632.0
347.0 39632.0
763.0 39632.0
599.0 39633.0
680.0 39633.0
1442.0 39633.0
26.0 39636.0
763.0 39636.0
866.0 39637.0
680.0 39639.0
1442.0 39639.0
26.0 39640.0
763.0 39640.0
112.0 39642.0
217.0 39642.0
328.0 39642.0
605.0 39642.0
632.0 39642.0
129.0 39643.0
224.0 39643.0
227.0 39643.0
232.0 39643.0
241.0 39643.0
334.0 39643.0
487.0 39643.0
623.0 39643.0
745.0 39643.0
26.0 39644.0
259.0 39644.0
366.0 39644.0
763.0 39644.0
258.0 39645.0
382.0 39645.0
680.0 39645.0
1442.0 39645.0
708.0 39647.0
26.0 39648.0
763.0 39648.0
347.0 39650.0
680.0 39650.0
1442.0 39651.0
26.0 39652.0
599.0 39652.0
763.0 39652.0
450.0 39653.0
296.0 39654.0
435.0 39654.0
718.0 39654.0
185.0 39655.0
680.0 39655.0
843.0 39655.0
860.0 39655.0
861.0 39655.0
14.0 39656.0
26.0 39656.0
286.0 39656.0
303.0 39656.0
607.0 39656.0
736.0 39656.0
763.0 39656.0
1012.0 39656.0
1156.0 39656.0
62.0 39657.0
166.0 39657.0
477.0 39657.0
591.0 39657.0
735.0 39657.0
866.0 39657.0
1165.0 39657.0
1172.0 39657.0
1442.0 39657.0
87.0 39658.0
157.0 39658.0
159.0 39658.0
558.0 39658.0
580.0 39658.0
696.0 39658.0
880.0 39658.0
167.0 39659.0
306.0 39659.0
428.0 39659.0
709.0 39659.0
725.0 39659.0
734.0 39659.0
744.0 39659.0
841.0 39659.0
1038.0 39659.0
26.0 39660.0
456.0 39660.0
680.0 39660.0
763.0 39660.0
1251.0 39660.0
434.0 39661.0
1390.0 39662.0
1404.0 39662.0
1016.0 39663.0
1442.0 39663.0
26.0 39664.0
763.0 39664.0
1001.0 39664.0
165.0 39665.0
347.0 39665.0
680.0 39665.0
605.0 39666.0
1253.0 39666.0
232.0 39667.0
632.0 39667.0
26.0 39668.0
112.0 39668.0
763.0 39668.0
217.0 39669.0
224.0 39669.0
241.0 39669.0
366.0 39669.0
599.0 39669.0
1442.0 39669.0
487.0 39670.0
623.0 39670.0
680.0 39670.0
745.0 39670.0
129.0 39671.0
328.0 39671.0
334.0 39671.0
26.0 39672.0
227.0 39672.0
763.0 39672.0
258.0 39673.0
259.0 39673.0
1442.0 39674.0
382.0 39675.0
680.0 39675.0
1105.0 39675.0
26.0 39676.0
763.0 39676.0
866.0 39676.0
708.0 39678.0
1226.0 39679.0
1442.0 39679.0
26.0 39680.0
680.0 39680.0
763.0 39680.0
347.0 39681.0
1114.0 39682.0
26.0 39684.0
763.0 39684.0
857.0 39684.0
1442.0 39684.0
296.0 39685.0
450.0 39685.0
680.0 39685.0
718.0 39685.0
860.0 39685.0
949.0 39685.0
973.0 39685.0
991.0 39685.0
303.0 39686.0
599.0 39686.0
714.0 39686.0
843.0 39686.0
736.0 39687.0
738.0 39687.0
26.0 39688.0
185.0 39688.0
763.0 39688.0
1118.0 39688.0
1222.0 39688.0
1254.0 39688.0
1337.0 39688.0
435.0 39689.0
591.0 39689.0
607.0 39689.0
861.0 39689.0
1442.0 39689.0
286.0 39690.0
605.0 39690.0
680.0 39690.0
735.0 39690.0
852.0 39690.0
959.0 39690.0
1068.0 39690.0
1075.0 39690.0
14.0 39691.0
62.0 39691.0
880.0 39691.0
1012.0 39691.0
1204.0 39691.0
26.0 39692.0
232.0 39692.0
558.0 39692.0
763.0 39692.0
1340.0 39692.0
1345.0 39692.0
166.0 39693.0
477.0 39693.0
709.0 39693.0
1156.0 39693.0
1418.0 39693.0
1423.0 39693.0
157.0 39694.0
159.0 39694.0
224.0 39694.0
241.0 39694.0
306.0 39694.0
428.0 39694.0
632.0 39694.0
725.0 39694.0
734.0 39694.0
866.0 39694.0
950.0 39694.0
1087.0 39694.0
1442.0 39694.0
112.0 39695.0
456.0 39695.0
680.0 39695.0
696.0 39695.0
744.0 39695.0
842.0 39695.0
1165.0 39695.0
1172.0 39695.0
26.0 39696.0
87.0 39696.0
217.0 39696.0
366.0 39696.0
763.0 39696.0
1038.0 39696.0
1251.0 39696.0
167.0 39697.0
347.0 39697.0
487.0 39698.0
580.0 39698.0
623.0 39698.0
745.0 39698.0
1390.0 39698.0
1417.0 39698.0
129.0 39699.0
328.0 39699.0
334.0 39699.0
841.0 39699.0
1088.0 39699.0
1404.0 39699.0
1442.0 39699.0
26.0 39700.0
434.0 39700.0
680.0 39700.0
763.0 39700.0
227.0 39701.0
258.0 39701.0
259.0 39701.0
599.0 39702.0
941.0 39703.0
1001.0 39703.0
1016.0 39703.0
26.0 39704.0
763.0 39704.0
1442.0 39704.0
382.0 39705.0
680.0 39705.0
1253.0 39705.0
1135.0 39707.0
26.0 39708.0
763.0 39708.0
1442.0 39708.0
165.0 39710.0
680.0 39710.0
708.0 39710.0
866.0 39711.0
1105.0 39711.0
26.0 39712.0
347.0 39712.0
763.0 39712.0
1442.0 39712.0
296.0 39714.0
605.0 39714.0
680.0 39715.0
718.0 39715.0
860.0 39715.0
26.0 39716.0
232.0 39716.0
763.0 39716.0
1442.0 39716.0
303.0 39717.0
450.0 39717.0
1226.0 39717.0
599.0 39718.0
735.0 39718.0
843.0 39718.0
224.0 39719.0
241.0 39719.0
736.0 39719.0
880.0 39719.0
26.0 39720.0
185.0 39720.0
632.0 39720.0
680.0 39720.0
763.0 39720.0
1012.0 39720.0
1114.0 39720.0
1442.0 39720.0
607.0 39721.0
857.0 39721.0
112.0 39722.0
591.0 39722.0
725.0 39722.0
217.0 39723.0
734.0 39723.0
949.0 39723.0
1156.0 39723.0
26.0 39724.0
286.0 39724.0
366.0 39724.0
763.0 39724.0
861.0 39724.0
973.0 39724.0
1442.0 39724.0
62.0 39725.0
435.0 39725.0
680.0 39725.0
991.0 39725.0
1165.0 39725.0
1172.0 39725.0
14.0 39726.0
334.0 39726.0
558.0 39726.0
623.0 39726.0
696.0 39726.0
714.0 39726.0
744.0 39726.0
745.0 39726.0
1222.0 39726.0
1251.0 39726.0
129.0 39727.0
328.0 39727.0
487.0 39727.0
738.0 39727.0
866.0 39727.0
1038.0 39727.0
1254.0 39727.0
1337.0 39727.0
1390.0 39727.0
26.0 39728.0
347.0 39728.0
709.0 39728.0
763.0 39728.0
1442.0 39728.0
166.0 39729.0
227.0 39729.0
258.0 39729.0
259.0 39729.0
306.0 39729.0
852.0 39729.0
157.0 39730.0
159.0 39730.0
428.0 39730.0
680.0 39730.0
959.0 39730.0
1068.0 39730.0
1075.0 39730.0
1118.0 39730.0
1404.0 39730.0
87.0 39731.0
456.0 39731.0
477.0 39731.0
1204.0 39731.0
1340.0 39731.0
26.0 39732.0
763.0 39732.0
1345.0 39732.0
1423.0 39732.0
1442.0 39732.0
1001.0 39733.0
1087.0 39733.0
1418.0 39733.0
167.0 39734.0
382.0 39734.0
1016.0 39734.0
599.0 39735.0
680.0 39735.0
842.0 39735.0
26.0 39736.0
763.0 39736.0
1253.0 39736.0
1442.0 39736.0
434.0 39737.0
580.0 39737.0
605.0 39737.0
950.0 39738.0
1088.0 39738.0
26.0 39740.0
232.0 39740.0
680.0 39740.0
763.0 39740.0
1105.0 39740.0
1442.0 39740.0
1417.0 39741.0
708.0 39742.0
841.0 39742.0
866.0 39742.0
224.0 39743.0
296.0 39743.0
735.0 39743.0
941.0 39743.0
26.0 39744.0
241.0 39744.0
347.0 39744.0
632.0 39744.0
763.0 39744.0
860.0 39744.0
880.0 39744.0
1442.0 39744.0
680.0 39745.0
718.0 39746.0
1226.0 39746.0
303.0 39747.0
725.0 39747.0
734.0 39747.0
1012.0 39747.0
26.0 39748.0
763.0 39748.0
1135.0 39748.0
1442.0 39748.0
112.0 39749.0
450.0 39749.0
680.0 39750.0
843.0 39750.0
217.0 39751.0
599.0 39751.0
736.0 39751.0
857.0 39751.0
1114.0 39751.0
1156.0 39751.0
26.0 39752.0
185.0 39752.0
334.0 39752.0
366.0 39752.0
763.0 39752.0
1442.0 39752.0
1165.0 39753.0
1172.0 39753.0
591.0 39754.0
623.0 39754.0
696.0 39754.0
744.0 39754.0
745.0 39754.0
949.0 39754.0
1038.0 39754.0
1251.0 39754.0
129.0 39755.0
165.0 39755.0
487.0 39755.0
680.0 39755.0
1390.0 39755.0
26.0 39756.0
328.0 39756.0
607.0 39756.0
763.0 39756.0
973.0 39756.0
1442.0 39756.0
258.0 39757.0
259.0 39757.0
861.0 39757.0
227.0 39758.0
558.0 39758.0
866.0 39758.0
1222.0 39758.0
1404.0 39758.0
286.0 39759.0
714.0 39759.0
26.0 39760.0
347.0 39760.0
435.0 39760.0
680.0 39760.0
763.0 39760.0
991.0 39760.0
1442.0 39760.0
14.0 39761.0
62.0 39761.0
1001.0 39761.0
1254.0 39761.0
1337.0 39761.0
605.0 39762.0
709.0 39762.0
738.0 39762.0
852.0 39762.0
1016.0 39763.0
26.0 39764.0
232.0 39764.0
306.0 39764.0
382.0 39764.0
428.0 39764.0
763.0 39764.0
1068.0 39764.0
1442.0 39764.0
159.0 39765.0
166.0 39765.0
680.0 39765.0
1118.0 39765.0
157.0 39766.0
456.0 39766.0
477.0 39766.0
959.0 39766.0
1075.0 39766.0
1204.0 39766.0
1253.0 39766.0
1340.0 39766.0
87.0 39767.0
224.0 39767.0
880.0 39767.0
1345.0 39767.0
26.0 39768.0
241.0 39768.0
599.0 39768.0
763.0 39768.0
1423.0 39768.0
1442.0 39768.0
632.0 39769.0
735.0 39769.0
1087.0 39769.0
1418.0 39769.0
167.0 39770.0
680.0 39770.0
1105.0 39770.0
734.0 39771.0
26.0 39772.0
725.0 39772.0
763.0 39772.0
1442.0 39772.0
296.0 39773.0
842.0 39773.0
866.0 39773.0
1012.0 39773.0
580.0 39774.0
708.0 39774.0
860.0 39774.0
112.0 39775.0
434.0 39775.0
680.0 39775.0
1088.0 39775.0
26.0 39776.0
347.0 39776.0
763.0 39776.0
1226.0 39776.0
1442.0 39776.0
303.0 39777.0
366.0 39777.0
217.0 39778.0
334.0 39778.0
718.0 39778.0
950.0 39778.0
1156.0 39779.0
26.0 39780.0
450.0 39780.0
680.0 39780.0
696.0 39780.0
763.0 39780.0
1114.0 39780.0
1442.0 39780.0
736.0 39781.0
857.0 39781.0
1038.0 39781.0
1172.0 39781.0
1417.0 39781.0
623.0 39782.0
744.0 39782.0
745.0 39782.0
941.0 39782.0
1165.0 39782.0
1251.0 39782.0
129.0 39783.0
487.0 39783.0
841.0 39783.0
843.0 39783.0
1390.0 39783.0
26.0 39784.0
328.0 39784.0
599.0 39784.0
763.0 39784.0
949.0 39784.0
1442.0 39784.0
185.0 39785.0
258.0 39785.0
259.0 39785.0
591.0 39785.0
680.0 39785.0
605.0 39786.0
1404.0 39786.0
227.0 39787.0
1135.0 39787.0
26.0 39788.0
763.0 39788.0
1442.0 39788.0
232.0 39789.0
558.0 39789.0
607.0 39789.0
866.0 39789.0
973.0 39789.0
1001.0 39789.0
1222.0 39789.0
680.0 39790.0
861.0 39790.0
880.0 39791.0
1016.0 39791.0
26.0 39792.0
224.0 39792.0
347.0 39792.0
714.0 39792.0
763.0 39792.0
991.0 39792.0
1442.0 39792.0
241.0 39793.0
382.0 39793.0
286.0 39794.0
435.0 39794.0
632.0 39794.0
709.0 39794.0
735.0 39794.0
680.0 39795.0
725.0 39795.0
734.0 39795.0
852.0 39795.0
1254.0 39795.0
14.0 39796.0
26.0 39796.0
62.0 39796.0
738.0 39796.0
763.0 39796.0
1253.0 39796.0
1337.0 39796.0
1442.0 39796.0
165.0 39798.0
1068.0 39798.0
306.0 39799.0
428.0 39799.0
1012.0 39799.0
26.0 39800.0
159.0 39800.0
680.0 39800.0
763.0 39800.0
1105.0 39800.0
1118.0 39800.0
1340.0 39800.0
1442.0 39800.0
166.0 39801.0
477.0 39801.0
599.0 39801.0
959.0 39801.0
1204.0 39801.0
87.0 39802.0
112.0 39802.0
157.0 39802.0
456.0 39802.0
1075.0 39802.0
1345.0 39802.0
296.0 39803.0
26.0 39804.0
334.0 39804.0
366.0 39804.0
763.0 39804.0
860.0 39804.0
1087.0 39804.0
1423.0 39804.0
1442.0 39804.0
217.0 39805.0
680.0 39805.0
866.0 39805.0
1418.0 39805.0
167.0 39806.0
708.0 39806.0
1226.0 39806.0
303.0 39807.0
696.0 39807.0
1156.0 39807.0
26.0 39808.0
347.0 39808.0
763.0 39808.0
1038.0 39808.0
1442.0 39808.0
1172.0 39809.0
434.0 39810.0
487.0 39810.0
580.0 39810.0
605.0 39810.0
623.0 39810.0
680.0 39810.0
718.0 39810.0
744.0 39810.0
745.0 39810.0
842.0 39810.0
857.0 39810.0
1114.0 39810.0
1251.0 39810.0
129.0 39811.0
450.0 39811.0
736.0 39811.0
1165.0 39811.0
1390.0 39811.0
26.0 39812.0
328.0 39812.0
763.0 39812.0
1442.0 39812.0
258.0 39813.0
259.0 39813.0
1088.0 39813.0
232.0 39814.0
843.0 39814.0
949.0 39814.0
1404.0 39814.0
680.0 39815.0
26.0 39816.0
763.0 39816.0
880.0 39816.0
1442.0 39816.0
224.0 39817.0
227.0 39817.0
591.0 39817.0
599.0 39817.0
241.0 39818.0
950.0 39818.0
1001.0 39818.0
185.0 39819.0
632.0 39819.0
725.0 39819.0
735.0 39819.0
941.0 39819.0
1016.0 39819.0
26.0 39820.0
680.0 39820.0
734.0 39820.0
763.0 39820.0
1442.0 39820.0
607.0 39821.0
866.0 39821.0
1222.0 39821.0
1417.0 39821.0
558.0 39822.0
382.0 39823.0
841.0 39823.0
26.0 39824.0
347.0 39824.0
763.0 39824.0
861.0 39824.0
973.0 39824.0
1442.0 39824.0
680.0 39825.0
991.0 39825.0
1012.0 39825.0
1253.0 39825.0
709.0 39826.0
714.0 39826.0
1135.0 39827.0
26.0 39828.0
763.0 39828.0
1254.0 39828.0
1442.0 39828.0
112.0 39829.0
435.0 39829.0
1105.0 39829.0
286.0 39830.0
334.0 39830.0
366.0 39830.0
852.0 39830.0
14.0 39831.0
62.0 39831.0
680.0 39831.0
738.0 39831.0
1337.0 39831.0
26.0 39832.0
763.0 39832.0
1442.0 39832.0
217.0 39833.0
860.0 39833.0
296.0 39834.0
599.0 39834.0
696.0 39834.0
1068.0 39834.0
1156.0 39834.0
428.0 39835.0
1038.0 39835.0
26.0 39836.0
159.0 39836.0
306.0 39836.0
605.0 39836.0
708.0 39836.0
763.0 39836.0
1340.0 39836.0
1442.0 39836.0
487.0 39837.0
680.0 39837.0
866.0 39837.0
1118.0 39837.0
1172.0 39837.0
1204.0 39837.0
1226.0 39837.0
166.0 39838.0
303.0 39838.0
456.0 39838.0
477.0 39838.0
623.0 39838.0
744.0 39838.0
745.0 39838.0
1251.0 39838.0
87.0 39839.0
129.0 39839.0
157.0 39839.0
232.0 39839.0
1165.0 39839.0
1390.0 39839.0
26.0 39840.0
328.0 39840.0
347.0 39840.0
763.0 39840.0
1442.0 39840.0
258.0 39841.0
259.0 39841.0
857.0 39841.0
959.0 39841.0
1075.0 39841.0
1087.0 39841.0
224.0 39842.0
880.0 39842.0
1345.0 39842.0
1404.0 39842.0
632.0 39843.0
680.0 39843.0
718.0 39843.0
725.0 39843.0
1114.0 39843.0
1423.0 39843.0
26.0 39844.0
241.0 39844.0
734.0 39844.0
735.0 39844.0
736.0 39844.0
763.0 39844.0
1418.0 39844.0
1442.0 39844.0
450.0 39845.0
227.0 39846.0
167.0 39847.0
843.0 39847.0
949.0 39847.0
1016.0 39847.0
26.0 39848.0
763.0 39848.0
1001.0 39848.0
1442.0 39848.0
680.0 39849.0
165.0 39850.0
599.0 39850.0
1012.0 39851.0
1442.0 39851.0
26.0 39852.0
763.0 39852.0
382.0 39853.0
580.0 39853.0
366.0 39854.0
434.0 39854.0
591.0 39854.0
866.0 39854.0
1253.0 39854.0
112.0 39855.0
185.0 39855.0
680.0 39855.0
1442.0 39855.0
26.0 39856.0
334.0 39856.0
763.0 39856.0
1088.0 39856.0
347.0 39857.0
607.0 39858.0
842.0 39858.0
1222.0 39859.0
1442.0 39859.0
26.0 39860.0
217.0 39860.0
696.0 39860.0
763.0 39860.0
1105.0 39860.0
1156.0 39860.0
605.0 39861.0
680.0 39861.0
1038.0 39861.0
714.0 39862.0
941.0 39862.0
1442.0 39862.0
232.0 39863.0
558.0 39863.0
973.0 39863.0
991.0 39863.0
1251.0 39863.0
26.0 39864.0
744.0 39864.0
763.0 39864.0
950.0 39864.0
1172.0 39864.0
487.0 39865.0
1390.0 39865.0
623.0 39866.0
709.0 39866.0
745.0 39866.0
861.0 39866.0
1442.0 39866.0
129.0 39867.0
224.0 39867.0
680.0 39867.0
708.0 39867.0
725.0 39867.0
860.0 39867.0
880.0 39867.0
1165.0 39867.0
1254.0 39867.0
1417.0 39867.0
26.0 39868.0
328.0 39868.0
599.0 39868.0
632.0 39868.0
734.0 39868.0
763.0 39868.0
852.0 39868.0
1337.0 39868.0
1404.0 39868.0
258.0 39869.0
259.0 39869.0
735.0 39869.0
738.0 39869.0
241.0 39870.0
296.0 39870.0
435.0 39870.0
866.0 39870.0
1135.0 39870.0
1442.0 39870.0
1226.0 39871.0
26.0 39872.0
763.0 39872.0
1068.0 39872.0
347.0 39873.0
680.0 39873.0
857.0 39873.0
1340.0 39873.0
14.0 39874.0
62.0 39874.0
286.0 39874.0
303.0 39874.0
1016.0 39874.0
1442.0 39874.0
227.0 39875.0
1001.0 39875.0
1118.0 39875.0
26.0 39876.0
428.0 39876.0
763.0 39876.0
1012.0 39876.0
159.0 39878.0
1114.0 39878.0
1442.0 39878.0
456.0 39879.0
680.0 39879.0
718.0 39879.0
959.0 39879.0
1204.0 39879.0
26.0 39880.0
306.0 39880.0
366.0 39880.0
736.0 39880.0
763.0 39880.0
1075.0 39880.0
1087.0 39880.0
334.0 39881.0
949.0 39881.0
1442.0 39881.0
87.0 39882.0
112.0 39882.0
382.0 39882.0
450.0 39882.0
1253.0 39882.0
843.0 39883.0
26.0 39884.0
157.0 39884.0
166.0 39884.0
763.0 39884.0
1345.0 39884.0
1423.0 39884.0
477.0 39885.0
599.0 39885.0
605.0 39885.0
680.0 39885.0
1442.0 39885.0
696.0 39886.0
1156.0 39886.0
1418.0 39886.0
232.0 39887.0
866.0 39887.0
1038.0 39887.0
26.0 39888.0
217.0 39888.0
763.0 39888.0
1251.0 39888.0
744.0 39889.0
841.0 39889.0
1442.0 39889.0
347.0 39890.0
1172.0 39890.0
167.0 39891.0
680.0 39891.0
725.0 39891.0
880.0 39891.0
1105.0 39891.0
1390.0 39891.0
26.0 39892.0
487.0 39892.0
632.0 39892.0
734.0 39892.0
763.0 39892.0
1442.0 39892.0
224.0 39893.0
735.0 39893.0
1222.0 39893.0
623.0 39894.0
745.0 39894.0
1404.0 39894.0
129.0 39895.0
328.0 39895.0
591.0 39895.0
1165.0 39895.0
26.0 39896.0
185.0 39896.0
241.0 39896.0
763.0 39896.0
1442.0 39896.0
258.0 39897.0
680.0 39897.0
1088.0 39897.0
259.0 39898.0
434.0 39898.0
708.0 39898.0
714.0 39898.0
991.0 39898.0
26.0 39900.0
763.0 39900.0
860.0 39900.0
973.0 39900.0
1442.0 39900.0
580.0 39901.0
607.0 39901.0
842.0 39901.0
1001.0 39901.0
1012.0 39901.0
1016.0 39901.0
599.0 39902.0
558.0 39903.0
680.0 39903.0
852.0 39903.0
866.0 39903.0
941.0 39903.0
26.0 39904.0
227.0 39904.0
763.0 39904.0
1337.0 39904.0
1442.0 39904.0
366.0 39905.0
709.0 39905.0
857.0 39905.0
861.0 39905.0
1226.0 39905.0
296.0 39906.0
738.0 39906.0
950.0 39906.0
112.0 39907.0
334.0 39907.0
347.0 39907.0
1254.0 39907.0
26.0 39908.0
763.0 39908.0
1442.0 39908.0
165.0 39909.0
435.0 39909.0
680.0 39909.0
303.0 39910.0
605.0 39910.0
1253.0 39910.0
232.0 39911.0
696.0 39911.0
1068.0 39911.0
1442.0 39911.0
26.0 39912.0
382.0 39912.0
763.0 39912.0
1156.0 39912.0
1340.0 39912.0
1038.0 39913.0
744.0 39914.0
1114.0 39914.0
1251.0 39914.0
62.0 39915.0
286.0 39915.0
680.0 39915.0
718.0 39915.0
725.0 39915.0
734.0 39915.0
880.0 39915.0
949.0 39915.0
1118.0 39915.0
1135.0 39915.0
1442.0 39915.0
26.0 39916.0
217.0 39916.0
736.0 39916.0
763.0 39916.0
1172.0 39916.0
1417.0 39916.0
735.0 39917.0
14.0 39918.0
224.0 39918.0
428.0 39918.0
632.0 39918.0
1087.0 39918.0
1390.0 39918.0
450.0 39919.0
487.0 39919.0
866.0 39919.0
1075.0 39919.0
1442.0 39919.0
26.0 39920.0
599.0 39920.0
763.0 39920.0
843.0 39920.0
959.0 39920.0
1204.0 39920.0
1404.0 39920.0
241.0 39921.0
306.0 39921.0
456.0 39921.0
680.0 39921.0
1165.0 39921.0
159.0 39922.0
623.0 39922.0
745.0 39922.0
1442.0 39922.0
129.0 39923.0
347.0 39923.0
1105.0 39923.0
26.0 39924.0
328.0 39924.0
763.0 39924.0
1345.0 39924.0
258.0 39925.0
1423.0 39925.0
1012.0 39926.0
1442.0 39926.0
87.0 39927.0
259.0 39927.0
680.0 39927.0
1222.0 39927.0
1418.0 39927.0
26.0 39928.0
157.0 39928.0
763.0 39928.0
1001.0 39928.0
1016.0 39928.0
166.0 39929.0
477.0 39929.0
366.0 39930.0
708.0 39930.0
1442.0 39930.0
763.0 39932.0
860.0 39932.0
991.0 39932.0
26.0 39933.0
227.0 39933.0
605.0 39933.0
680.0 39933.0
112.0 39934.0
334.0 39934.0
714.0 39934.0
1442.0 39934.0
866.0 39935.0
232.0 39936.0
696.0 39936.0
763.0 39936.0
857.0 39936.0
26.0 39937.0
591.0 39937.0
599.0 39937.0
973.0 39937.0
167.0 39938.0
185.0 39938.0
725.0 39938.0
880.0 39938.0
1156.0 39938.0
1253.0 39938.0
1442.0 39938.0
607.0 39939.0
680.0 39939.0
1038.0 39939.0
1088.0 39939.0
1226.0 39939.0
734.0 39940.0
744.0 39940.0
763.0 39940.0
852.0 39940.0
1251.0 39940.0
347.0 39941.0
735.0 39941.0
1442.0 39941.0
841.0 39942.0
1337.0 39942.0
26.0 39943.0
296.0 39943.0
382.0 39943.0
1172.0 39943.0
632.0 39944.0
1390.0 39944.0
224.0 39945.0
709.0 39945.0
763.0 39945.0
861.0 39945.0
1442.0 39945.0
217.0 39946.0
738.0 39946.0
842.0 39946.0
1254.0 39946.0
1404.0 39946.0
680.0 39947.0
26.0 39948.0
241.0 39948.0
1114.0 39948.0
1165.0 39948.0
763.0 39949.0
1340.0 39949.0
1442.0 39949.0
941.0 39951.0
949.0 39951.0
950.0 39951.0
866.0 39952.0
1068.0 39952.0
1442.0 39952.0
26.0 39953.0
487.0 39953.0
1012.0 39953.0
680.0 39955.0
763.0 39955.0
1442.0 39956.0
129.0 39957.0
623.0 39957.0
1001.0 39957.0
1016.0 39957.0
1105.0 39957.0
26.0 39958.0
745.0 39959.0
1442.0 39960.0
763.0 39961.0
599.0 39962.0
26.0 39963.0
680.0 39963.0
1118.0 39964.0
1442.0 39964.0
347.0 39965.0
880.0 39966.0
328.0 39967.0
696.0 39967.0
725.0 39967.0
763.0 39967.0
1442.0 39968.0
26.0 39969.0
258.0 39969.0
1087.0 39969.0
680.0 39971.0
734.0 39971.0
744.0 39971.0
735.0 39972.0
1156.0 39972.0
1442.0 39972.0
763.0 39973.0
866.0 39974.0
1038.0 39974.0
1251.0 39974.0
26.0 39975.0
1442.0 39976.0
1075.0 39978.0
680.0 39979.0
763.0 39979.0
1253.0 39979.0
1222.0 39980.0
1390.0 39980.0
1442.0 39980.0
26.0 39981.0
1172.0 39981.0
1442.0 39984.0
763.0 39985.0
857.0 39986.0
991.0 39986.0
1404.0 39986.0
26.0 39987.0
1345.0 39987.0
1423.0 39988.0
1442.0 39988.0
680.0 39989.0
1165.0 39990.0
763.0 39991.0
1442.0 39992.0
26.0 39993.0
1012.0 39996.0
1442.0 39996.0
599.0 39998.0
866.0 39998.0
