26.0 41406.0
680.0 41407.0
763.0 41409.0
1442.0 41409.0
26.0 41411.0
680.0 41413.0
26.0 41414.0
763.0 41415.0
1442.0 41415.0
680.0 41418.0
26.0 41419.0
763.0 41421.0
1442.0 41421.0
26.0 41422.0
680.0 41423.0
26.0 41427.0
763.0 41427.0
1442.0 41427.0
680.0 41428.0
26.0 41430.0
680.0 41433.0
763.0 41433.0
1442.0 41433.0
347.0 41434.0
599.0 41434.0
26.0 41435.0
26.0 41439.0
680.0 41439.0
763.0 41439.0
1442.0 41439.0
866.0 41440.0
26.0 41443.0
680.0 41445.0
763.0 41445.0
1442.0 41445.0
26.0 41447.0
450.0 41450.0
26.0 41451.0
680.0 41451.0
763.0 41451.0
1442.0 41451.0
303.0 41452.0
14.0 41453.0
87.0 41454.0
26.0 41455.0
159.0 41455.0
62.0 41456.0
166.0 41456.0
167.0 41456.0
185.0 41456.0
286.0 41456.0
296.0 41456.0
306.0 41456.0
347.0 41456.0
434.0 41456.0
435.0 41456.0
599.0 41456.0
157.0 41457.0
477.0 41457.0
605.0 41457.0
680.0 41457.0
718.0 41457.0
763.0 41457.0
1442.0 41457.0
217.0 41458.0
232.0 41458.0
328.0 41458.0
558.0 41458.0
607.0 41458.0
26.0 41459.0
129.0 41459.0
241.0 41459.0
632.0 41459.0
112.0 41460.0
224.0 41461.0
259.0 41461.0
366.0 41461.0
428.0 41461.0
487.0 41461.0
580.0 41461.0
623.0 41461.0
709.0 41461.0
734.0 41461.0
227.0 41462.0
258.0 41462.0
745.0 41462.0
26.0 41463.0
334.0 41463.0
680.0 41463.0
744.0 41463.0
763.0 41463.0
1442.0 41463.0
696.0 41464.0
26.0 41467.0
382.0 41467.0
165.0 41469.0
680.0 41469.0
763.0 41469.0
866.0 41469.0
1442.0 41469.0
708.0 41470.0
26.0 41471.0
26.0 41475.0
347.0 41475.0
680.0 41475.0
763.0 41475.0
1442.0 41475.0
26.0 41479.0
599.0 41479.0
680.0 41481.0
763.0 41481.0
1442.0 41481.0
26.0 41483.0
763.0 41486.0
26.0 41487.0
680.0 41487.0
1442.0 41487.0
303.0 41489.0
450.0 41490.0
26.0 41491.0
763.0 41491.0
680.0 41493.0
1442.0 41493.0
26.0 41495.0
347.0 41495.0
605.0 41496.0
763.0 41496.0
232.0 41497.0
632.0 41497.0
866.0 41497.0
159.0 41498.0
217.0 41498.0
241.0 41498.0
286.0 41498.0
296.0 41498.0
328.0 41498.0
14.0 41499.0
26.0 41499.0
129.0 41499.0
185.0 41499.0
680.0 41499.0
1442.0 41499.0
112.0 41500.0
166.0 41500.0
366.0 41500.0
435.0 41500.0
599.0 41500.0
62.0 41501.0
87.0 41501.0
224.0 41501.0
258.0 41501.0
259.0 41501.0
477.0 41501.0
487.0 41501.0
623.0 41501.0
718.0 41501.0
763.0 41501.0
558.0 41502.0
745.0 41502.0
26.0 41503.0
227.0 41503.0
306.0 41503.0
334.0 41503.0
157.0 41504.0
167.0 41504.0
434.0 41504.0
607.0 41505.0
680.0 41505.0
734.0 41505.0
736.0 41505.0
860.0 41505.0
1442.0 41505.0
709.0 41506.0
744.0 41506.0
763.0 41506.0
26.0 41507.0
696.0 41507.0
382.0 41508.0
580.0 41510.0
861.0 41510.0
26.0 41511.0
680.0 41511.0
735.0 41511.0
763.0 41511.0
1442.0 41511.0
347.0 41513.0
428.0 41513.0
708.0 41513.0
725.0 41513.0
843.0 41514.0
26.0 41515.0
763.0 41516.0
680.0 41517.0
1442.0 41517.0
26.0 41519.0
599.0 41520.0
763.0 41521.0
591.0 41522.0
866.0 41522.0
26.0 41523.0
680.0 41523.0
1442.0 41523.0
880.0 41524.0
1165.0 41524.0
165.0 41525.0
303.0 41525.0
763.0 41526.0
26.0 41527.0
232.0 41528.0
450.0 41528.0
605.0 41528.0
632.0 41528.0
680.0 41529.0
1442.0 41529.0
1038.0 41530.0
26.0 41531.0
217.0 41531.0
241.0 41531.0
763.0 41531.0
347.0 41532.0
112.0 41533.0
1251.0 41533.0
224.0 41534.0
328.0 41534.0
26.0 41535.0
129.0 41535.0
366.0 41535.0
623.0 41535.0
680.0 41535.0
1012.0 41535.0
1442.0 41535.0
763.0 41536.0
1172.0 41536.0
258.0 41537.0
487.0 41537.0
259.0 41538.0
296.0 41538.0
334.0 41538.0
745.0 41538.0
26.0 41539.0
1156.0 41539.0
286.0 41540.0
599.0 41540.0
14.0 41541.0
159.0 41541.0
227.0 41541.0
435.0 41541.0
680.0 41541.0
763.0 41541.0
1442.0 41541.0
185.0 41542.0
718.0 41542.0
26.0 41543.0
558.0 41545.0
62.0 41546.0
166.0 41546.0
382.0 41546.0
763.0 41546.0
26.0 41547.0
87.0 41547.0
306.0 41547.0
477.0 41547.0
607.0 41547.0
680.0 41547.0
734.0 41547.0
744.0 41547.0
866.0 41547.0
1442.0 41547.0
157.0 41549.0
696.0 41549.0
709.0 41550.0
26.0 41551.0
347.0 41551.0
763.0 41551.0
167.0 41552.0
680.0 41553.0
708.0 41553.0
1442.0 41553.0
434.0 41554.0
26.0 41555.0
763.0 41556.0
580.0 41557.0
232.0 41558.0
26.0 41559.0
456.0 41559.0
680.0 41559.0
1442.0 41559.0
599.0 41560.0
860.0 41560.0
303.0 41561.0
605.0 41561.0
763.0 41561.0
428.0 41562.0
632.0 41562.0
26.0 41563.0
241.0 41563.0
680.0 41565.0
1442.0 41565.0
217.0 41566.0
224.0 41566.0
763.0 41566.0
26.0 41567.0
112.0 41568.0
450.0 41568.0
129.0 41570.0
328.0 41570.0
347.0 41570.0
366.0 41570.0
623.0 41570.0
26.0 41571.0
680.0 41571.0
736.0 41571.0
763.0 41571.0
1442.0 41571.0
258.0 41572.0
487.0 41572.0
866.0 41572.0
334.0 41573.0
745.0 41573.0
26.0 41575.0
259.0 41575.0
763.0 41576.0
296.0 41577.0
680.0 41577.0
735.0 41577.0
861.0 41577.0
1442.0 41577.0
26.0 41579.0
227.0 41579.0
599.0 41580.0
286.0 41581.0
718.0 41581.0
763.0 41581.0
843.0 41581.0
185.0 41582.0
1253.0 41582.0
26.0 41583.0
165.0 41583.0
435.0 41583.0
680.0 41583.0
1442.0 41583.0
14.0 41584.0
382.0 41585.0
763.0 41586.0
26.0 41587.0
159.0 41587.0
558.0 41587.0
1390.0 41587.0
62.0 41589.0
166.0 41589.0
607.0 41589.0
680.0 41589.0
734.0 41589.0
1442.0 41589.0
232.0 41590.0
347.0 41590.0
477.0 41590.0
744.0 41590.0
26.0 41591.0
605.0 41591.0
763.0 41591.0
306.0 41593.0
632.0 41593.0
696.0 41593.0
708.0 41593.0
709.0 41593.0
157.0 41594.0
26.0 41595.0
680.0 41595.0
1442.0 41595.0
763.0 41596.0
87.0 41597.0
241.0 41597.0
303.0 41597.0
866.0 41597.0
224.0 41598.0
725.0 41598.0
26.0 41599.0
167.0 41600.0
599.0 41600.0
680.0 41601.0
763.0 41601.0
1442.0 41601.0
112.0 41602.0
217.0 41602.0
26.0 41603.0
880.0 41603.0
434.0 41604.0
580.0 41604.0
366.0 41605.0
623.0 41605.0
129.0 41606.0
328.0 41606.0
450.0 41606.0
487.0 41606.0
763.0 41606.0
26.0 41607.0
334.0 41607.0
680.0 41607.0
1442.0 41607.0
258.0 41608.0
745.0 41608.0
347.0 41609.0
428.0 41609.0
26.0 41611.0
763.0 41611.0
259.0 41612.0
296.0 41613.0
680.0 41613.0
1442.0 41613.0
26.0 41615.0
860.0 41615.0
1165.0 41615.0
227.0 41616.0
763.0 41616.0
591.0 41618.0
26.0 41619.0
680.0 41619.0
1442.0 41619.0
599.0 41620.0
1038.0 41620.0
763.0 41621.0
866.0 41621.0
232.0 41622.0
26.0 41623.0
605.0 41623.0
718.0 41623.0
185.0 41624.0
382.0 41624.0
286.0 41625.0
680.0 41625.0
1156.0 41625.0
1442.0 41625.0
14.0 41626.0
632.0 41626.0
763.0 41626.0
1172.0 41626.0
26.0 41627.0
347.0 41627.0
241.0 41628.0
435.0 41628.0
607.0 41628.0
558.0 41629.0
159.0 41630.0
224.0 41630.0
763.0 41630.0
26.0 41631.0
680.0 41631.0
1442.0 41631.0
477.0 41632.0
734.0 41632.0
62.0 41633.0
166.0 41633.0
708.0 41633.0
736.0 41633.0
744.0 41633.0
1404.0 41633.0
763.0 41634.0
26.0 41635.0
217.0 41635.0
1012.0 41635.0
112.0 41636.0
303.0 41636.0
306.0 41637.0
623.0 41637.0
680.0 41637.0
709.0 41637.0
1442.0 41637.0
157.0 41638.0
366.0 41638.0
487.0 41638.0
696.0 41638.0
735.0 41638.0
763.0 41638.0
26.0 41639.0
599.0 41639.0
1251.0 41639.0
129.0 41640.0
328.0 41640.0
334.0 41640.0
745.0 41640.0
258.0 41641.0
843.0 41641.0
763.0 41642.0
861.0 41642.0
1001.0 41642.0
1016.0 41642.0
26.0 41643.0
456.0 41643.0
680.0 41643.0
1442.0 41643.0
165.0 41644.0
259.0 41644.0
347.0 41644.0
866.0 41644.0
87.0 41645.0
450.0 41645.0
763.0 41646.0
841.0 41646.0
26.0 41647.0
167.0 41647.0
227.0 41647.0
1253.0 41647.0
1390.0 41647.0
605.0 41648.0
680.0 41649.0
725.0 41649.0
880.0 41649.0
1442.0 41649.0
232.0 41650.0
763.0 41650.0
26.0 41651.0
296.0 41652.0
632.0 41652.0
428.0 41653.0
580.0 41653.0
434.0 41654.0
763.0 41654.0
26.0 41655.0
241.0 41655.0
382.0 41655.0
680.0 41655.0
860.0 41655.0
1442.0 41655.0
224.0 41656.0
599.0 41657.0
763.0 41658.0
26.0 41659.0
347.0 41661.0
680.0 41661.0
718.0 41661.0
1165.0 41661.0
1442.0 41661.0
112.0 41662.0
763.0 41662.0
26.0 41663.0
217.0 41663.0
591.0 41663.0
623.0 41665.0
708.0 41665.0
1038.0 41665.0
185.0 41666.0
366.0 41666.0
487.0 41666.0
763.0 41666.0
866.0 41666.0
1156.0 41666.0
26.0 41667.0
334.0 41667.0
680.0 41667.0
1442.0 41667.0
14.0 41668.0
129.0 41668.0
258.0 41668.0
328.0 41668.0
607.0 41668.0
745.0 41668.0
286.0 41669.0
736.0 41670.0
763.0 41670.0
26.0 41671.0
259.0 41672.0
435.0 41672.0
1172.0 41672.0
159.0 41673.0
558.0 41673.0
605.0 41673.0
680.0 41673.0
734.0 41673.0
744.0 41673.0
1442.0 41673.0
303.0 41674.0
477.0 41674.0
763.0 41674.0
26.0 41675.0
227.0 41675.0
232.0 41675.0
599.0 41675.0
735.0 41675.0
709.0 41677.0
1012.0 41677.0
62.0 41678.0
166.0 41678.0
347.0 41678.0
632.0 41678.0
763.0 41678.0
843.0 41678.0
1404.0 41678.0
26.0 41679.0
306.0 41679.0
680.0 41679.0
696.0 41679.0
861.0 41679.0
1442.0 41679.0
157.0 41681.0
224.0 41681.0
241.0 41681.0
1251.0 41681.0
763.0 41682.0
26.0 41683.0
450.0 41683.0
382.0 41684.0
680.0 41685.0
1442.0 41685.0
763.0 41686.0
880.0 41686.0
26.0 41687.0
866.0 41687.0
112.0 41688.0
456.0 41688.0
296.0 41689.0
1390.0 41689.0
680.0 41690.0
763.0 41690.0
1016.0 41690.0
26.0 41691.0
217.0 41691.0
860.0 41691.0
1001.0 41691.0
1442.0 41691.0
167.0 41692.0
366.0 41692.0
725.0 41692.0
87.0 41693.0
487.0 41693.0
599.0 41693.0
623.0 41693.0
841.0 41693.0
334.0 41694.0
428.0 41694.0
763.0 41694.0
26.0 41695.0
347.0 41695.0
680.0 41695.0
1253.0 41695.0
129.0 41696.0
258.0 41696.0
328.0 41696.0
745.0 41696.0
605.0 41697.0
708.0 41697.0
1105.0 41697.0
1442.0 41697.0
580.0 41698.0
718.0 41698.0
763.0 41698.0
26.0 41699.0
165.0 41700.0
232.0 41700.0
259.0 41700.0
434.0 41700.0
591.0 41700.0
680.0 41700.0
185.0 41702.0
736.0 41702.0
763.0 41702.0
26.0 41703.0
1442.0 41703.0
227.0 41704.0
607.0 41704.0
632.0 41704.0
286.0 41705.0
680.0 41705.0
1156.0 41705.0
1165.0 41705.0
1226.0 41705.0
14.0 41706.0
241.0 41706.0
763.0 41706.0
26.0 41707.0
224.0 41707.0
866.0 41707.0
303.0 41708.0
435.0 41709.0
558.0 41709.0
1038.0 41709.0
1442.0 41709.0
159.0 41710.0
599.0 41710.0
680.0 41710.0
709.0 41710.0
735.0 41710.0
763.0 41710.0
26.0 41711.0
347.0 41711.0
477.0 41711.0
714.0 41711.0
843.0 41712.0
734.0 41713.0
744.0 41713.0
112.0 41714.0
382.0 41714.0
763.0 41714.0
857.0 41714.0
861.0 41714.0
973.0 41714.0
1114.0 41714.0
26.0 41715.0
62.0 41715.0
306.0 41715.0
680.0 41715.0
1172.0 41715.0
1442.0 41715.0
166.0 41716.0
450.0 41716.0
949.0 41716.0
157.0 41717.0
366.0 41718.0
763.0 41718.0
26.0 41719.0
217.0 41719.0
860.0 41719.0
1012.0 41719.0
296.0 41720.0
334.0 41720.0
623.0 41720.0
680.0 41720.0
991.0 41720.0
487.0 41721.0
852.0 41721.0
1118.0 41721.0
1222.0 41721.0
1442.0 41721.0
605.0 41722.0
738.0 41722.0
763.0 41722.0
880.0 41722.0
1404.0 41722.0
26.0 41723.0
129.0 41724.0
258.0 41724.0
745.0 41724.0
1251.0 41724.0
232.0 41725.0
456.0 41725.0
680.0 41725.0
696.0 41725.0
328.0 41726.0
347.0 41726.0
763.0 41726.0
866.0 41726.0
26.0 41727.0
599.0 41727.0
1337.0 41727.0
1442.0 41727.0
259.0 41728.0
167.0 41729.0
428.0 41729.0
632.0 41729.0
708.0 41729.0
591.0 41730.0
680.0 41730.0
718.0 41730.0
763.0 41730.0
26.0 41731.0
87.0 41731.0
241.0 41731.0
1340.0 41731.0
224.0 41732.0
725.0 41732.0
1254.0 41732.0
1390.0 41732.0
227.0 41733.0
736.0 41733.0
841.0 41733.0
1087.0 41733.0
1442.0 41733.0
580.0 41734.0
763.0 41734.0
26.0 41735.0
185.0 41735.0
680.0 41735.0
607.0 41736.0
1016.0 41736.0
303.0 41738.0
763.0 41738.0
1001.0 41738.0
26.0 41739.0
1442.0 41739.0
112.0 41740.0
434.0 41740.0
680.0 41740.0
1068.0 41740.0
1075.0 41740.0
14.0 41741.0
286.0 41741.0
709.0 41741.0
347.0 41742.0
558.0 41742.0
763.0 41742.0
26.0 41743.0
382.0 41743.0
1253.0 41743.0
165.0 41744.0
366.0 41744.0
435.0 41744.0
599.0 41744.0
843.0 41744.0
159.0 41745.0
605.0 41745.0
680.0 41745.0
866.0 41745.0
1156.0 41745.0
1442.0 41745.0
763.0 41746.0
959.0 41746.0
26.0 41747.0
217.0 41747.0
334.0 41747.0
477.0 41747.0
735.0 41747.0
450.0 41748.0
623.0 41748.0
296.0 41749.0
487.0 41749.0
62.0 41750.0
232.0 41750.0
306.0 41750.0
680.0 41750.0
763.0 41750.0
860.0 41750.0
861.0 41750.0
1105.0 41750.0
1165.0 41750.0
26.0 41751.0
734.0 41751.0
1038.0 41751.0
1442.0 41751.0
129.0 41752.0
166.0 41752.0
258.0 41752.0
745.0 41752.0
157.0 41753.0
632.0 41753.0
744.0 41753.0
328.0 41754.0
680.0 41754.0
763.0 41754.0
26.0 41755.0
259.0 41756.0
1226.0 41756.0
224.0 41757.0
241.0 41757.0
347.0 41757.0
842.0 41757.0
1442.0 41757.0
680.0 41758.0
763.0 41758.0
880.0 41758.0
1172.0 41758.0
26.0 41759.0
599.0 41759.0
1204.0 41759.0
456.0 41760.0
428.0 41761.0
708.0 41761.0
718.0 41761.0
1012.0 41761.0
1345.0 41761.0
1423.0 41761.0
591.0 41762.0
680.0 41762.0
736.0 41762.0
763.0 41762.0
1088.0 41762.0
1418.0 41762.0
26.0 41763.0
167.0 41763.0
227.0 41763.0
866.0 41763.0
941.0 41763.0
1114.0 41763.0
1442.0 41763.0
857.0 41764.0
949.0 41764.0
87.0 41765.0
696.0 41765.0
950.0 41765.0
185.0 41766.0
303.0 41766.0
580.0 41766.0
680.0 41766.0
763.0 41766.0
1251.0 41766.0
26.0 41767.0
112.0 41768.0
605.0 41768.0
607.0 41768.0
841.0 41768.0
973.0 41768.0
1135.0 41768.0
1404.0 41768.0
1417.0 41768.0
714.0 41769.0
725.0 41769.0
1442.0 41769.0
558.0 41770.0
680.0 41770.0
709.0 41770.0
763.0 41770.0
26.0 41771.0
366.0 41771.0
852.0 41771.0
991.0 41771.0
14.0 41772.0
286.0 41772.0
347.0 41772.0
382.0 41772.0
434.0 41772.0
843.0 41772.0
1222.0 41772.0
1390.0 41773.0
232.0 41774.0
334.0 41774.0
435.0 41774.0
680.0 41774.0
763.0 41774.0
26.0 41775.0
159.0 41775.0
217.0 41775.0
599.0 41775.0
738.0 41775.0
860.0 41775.0
1442.0 41775.0
296.0 41776.0
623.0 41776.0
1118.0 41776.0
450.0 41777.0
477.0 41777.0
487.0 41777.0
680.0 41778.0
763.0 41778.0
1254.0 41778.0
1337.0 41778.0
26.0 41779.0
62.0 41779.0
306.0 41779.0
632.0 41779.0
861.0 41779.0
1340.0 41779.0
129.0 41780.0
165.0 41780.0
258.0 41780.0
745.0 41780.0
866.0 41780.0
157.0 41781.0
166.0 41781.0
224.0 41781.0
1016.0 41781.0
1087.0 41781.0
1442.0 41781.0
241.0 41782.0
680.0 41782.0
735.0 41782.0
763.0 41782.0
26.0 41783.0
734.0 41783.0
328.0 41784.0
259.0 41785.0
347.0 41786.0
680.0 41786.0
718.0 41786.0
736.0 41786.0
763.0 41786.0
1105.0 41786.0
1156.0 41786.0
26.0 41787.0
591.0 41787.0
1001.0 41787.0
1068.0 41787.0
1253.0 41787.0
1442.0 41787.0
456.0 41788.0
1075.0 41788.0
428.0 41789.0
1038.0 41789.0
599.0 41790.0
680.0 41790.0
763.0 41790.0
26.0 41791.0
227.0 41791.0
303.0 41791.0
167.0 41792.0
185.0 41792.0
605.0 41792.0
959.0 41792.0
112.0 41793.0
708.0 41793.0
1165.0 41793.0
1442.0 41793.0
680.0 41794.0
744.0 41794.0
763.0 41794.0
880.0 41794.0
1226.0 41794.0
26.0 41795.0
87.0 41796.0
580.0 41796.0
607.0 41796.0
366.0 41797.0
558.0 41797.0
709.0 41797.0
866.0 41797.0
843.0 41798.0
232.0 41799.0
286.0 41799.0
860.0 41799.0
949.0 41799.0
1172.0 41799.0
14.0 41800.0
26.0 41800.0
334.0 41800.0
841.0 41800.0
857.0 41800.0
