14.0 42042.0
14.0 42070.0
14.0 42097.0
14.0 42124.0
14.0 42151.0
14.0 42178.0
14.0 42204.0
14.0 42232.0
14.0 42263.0
14.0 42297.0
14.0 42336.0
14.0 42379.0
26.0 42006.0
26.0 42010.0
26.0 42014.0
26.0 42018.0
26.0 42022.0
26.0 42026.0
26.0 42030.0
26.0 42034.0
26.0 42038.0
26.0 42042.0
26.0 42046.0
26.0 42050.0
26.0 42054.0
26.0 42058.0
26.0 42062.0
26.0 42066.0
26.0 42070.0
26.0 42074.0
26.0 42078.0
26.0 42082.0
26.0 42086.0
26.0 42090.0
26.0 42094.0
26.0 42098.0
26.0 42102.0
26.0 42106.0
26.0 42110.0
26.0 42114.0
26.0 42118.0
26.0 42122.0
26.0 42126.0
26.0 42130.0
26.0 42134.0
26.0 42138.0
26.0 42142.0
26.0 42146.0
26.0 42150.0
26.0 42154.0
26.0 42158.0
26.0 42162.0
26.0 42166.0
26.0 42170.0
26.0 42174.0
26.0 42178.0
26.0 42182.0
26.0 42186.0
26.0 42190.0
26.0 42194.0
26.0 42198.0
26.0 42202.0
26.0 42206.0
26.0 42210.0
26.0 42214.0
26.0 42219.0
26.0 42223.0
26.0 42229.0
26.0 42234.0
26.0 42239.0
26.0 42244.0
26.0 42249.0
26.0 42254.0
26.0 42259.0
26.0 42264.0
26.0 42269.0
26.0 42274.0
26.0 42279.0
26.0 42284.0
26.0 42289.0
26.0 42295.0
26.0 42301.0
26.0 42307.0
26.0 42313.0
26.0 42319.0
26.0 42325.0
26.0 42331.0
26.0 42337.0
26.0 42343.0
26.0 42349.0
26.0 42355.0
26.0 42361.0
26.0 42367.0
26.0 42373.0
26.0 42379.0
26.0 42385.0
26.0 42391.0
62.0 42042.0
62.0 42070.0
62.0 42097.0
62.0 42124.0
62.0 42151.0
62.0 42178.0
62.0 42204.0
62.0 42231.0
62.0 42263.0
62.0 42295.0
62.0 42337.0
62.0 42378.0
87.0 42042.0
87.0 42071.0
87.0 42101.0
87.0 42131.0
87.0 42161.0
87.0 42191.0
87.0 42220.0
87.0 42254.0
87.0 42287.0
87.0 42331.0
87.0 42376.0
112.0 42040.0
112.0 42066.0
112.0 42092.0
112.0 42116.0
112.0 42141.0
112.0 42167.0
112.0 42192.0
112.0 42214.0
112.0 42236.0
112.0 42258.0
112.0 42280.0
112.0 42304.0
112.0 42337.0
112.0 42374.0
129.0 42041.0
129.0 42069.0
129.0 42097.0
129.0 42122.0
129.0 42148.0
129.0 42175.0
129.0 42201.0
129.0 42224.0
129.0 42250.0
129.0 42275.0
129.0 42301.0
129.0 42337.0
129.0 42378.0
139.0 42276.0
157.0 42044.0
157.0 42073.0
157.0 42101.0
157.0 42129.0
157.0 42157.0
157.0 42185.0
157.0 42211.0
157.0 42241.0
157.0 42272.0
157.0 42308.0
157.0 42350.0
157.0 42397.0
159.0 42041.0
159.0 42069.0
159.0 42097.0
159.0 42125.0
159.0 42153.0
159.0 42181.0
159.0 42207.0
159.0 42236.0
159.0 42267.0
159.0 42301.0
159.0 42345.0
159.0 42389.0
165.0 42044.0
165.0 42078.0
165.0 42111.0
165.0 42145.0
165.0 42177.0
165.0 42207.0
165.0 42245.0
165.0 42286.0
165.0 42343.0
166.0 42042.0
166.0 42070.0
166.0 42098.0
166.0 42126.0
166.0 42154.0
166.0 42182.0
166.0 42208.0
166.0 42238.0
166.0 42271.0
166.0 42307.0
166.0 42350.0
166.0 42396.0
167.0 42044.0
167.0 42073.0
167.0 42103.0
167.0 42132.0
167.0 42161.0
167.0 42189.0
167.0 42216.0
167.0 42249.0
167.0 42282.0
167.0 42321.0
167.0 42366.0
185.0 42042.0
185.0 42069.0
185.0 42097.0
185.0 42123.0
185.0 42149.0
185.0 42175.0
185.0 42201.0
185.0 42226.0
185.0 42257.0
185.0 42287.0
185.0 42323.0
185.0 42364.0
217.0 42039.0
217.0 42066.0
217.0 42093.0
217.0 42118.0
217.0 42144.0
217.0 42170.0
217.0 42196.0
217.0 42219.0
217.0 42243.0
217.0 42267.0
217.0 42291.0
217.0 42318.0
217.0 42355.0
217.0 42394.0
224.0 42040.0
224.0 42065.0
224.0 42091.0
224.0 42114.0
224.0 42137.0
224.0 42160.0
224.0 42184.0
224.0 42207.0
224.0 42228.0
224.0 42251.0
224.0 42273.0
224.0 42294.0
224.0 42322.0
224.0 42354.0
224.0 42389.0
227.0 42041.0
227.0 42069.0
227.0 42097.0
227.0 42123.0
227.0 42149.0
227.0 42175.0
227.0 42201.0
227.0 42224.0
227.0 42249.0
227.0 42273.0
227.0 42299.0
227.0 42335.0
227.0 42377.0
232.0 42040.0
232.0 42065.0
232.0 42090.0
232.0 42113.0
232.0 42137.0
232.0 42161.0
232.0 42185.0
232.0 42208.0
232.0 42229.0
232.0 42251.0
232.0 42273.0
232.0 42293.0
232.0 42322.0
232.0 42355.0
232.0 42390.0
235.0 42249.0
241.0 42040.0
241.0 42065.0
241.0 42090.0
241.0 42114.0
241.0 42138.0
241.0 42162.0
241.0 42186.0
241.0 42209.0
241.0 42229.0
241.0 42251.0
241.0 42273.0
241.0 42294.0
241.0 42322.0
241.0 42355.0
241.0 42389.0
258.0 42043.0
258.0 42071.0
258.0 42099.0
258.0 42125.0
258.0 42151.0
258.0 42177.0
258.0 42203.0
258.0 42225.0
258.0 42249.0
258.0 42273.0
258.0 42297.0
258.0 42330.0
258.0 42366.0
259.0 42041.0
259.0 42070.0
259.0 42099.0
259.0 42126.0
259.0 42152.0
259.0 42179.0
259.0 42206.0
259.0 42229.0
259.0 42254.0
259.0 42279.0
259.0 42306.0
259.0 42343.0
259.0 42385.0
286.0 42042.0
286.0 42071.0
286.0 42098.0
286.0 42125.0
286.0 42152.0
286.0 42180.0
286.0 42206.0
286.0 42232.0
286.0 42263.0
286.0 42295.0
286.0 42337.0
286.0 42381.0
296.0 42043.0
296.0 42068.0
296.0 42095.0
296.0 42119.0
296.0 42144.0
296.0 42168.0
296.0 42192.0
296.0 42215.0
296.0 42240.0
296.0 42267.0
296.0 42295.0
296.0 42330.0
296.0 42366.0
303.0 42041.0
303.0 42066.0
303.0 42091.0
303.0 42115.0
303.0 42140.0
303.0 42164.0
303.0 42188.0
303.0 42211.0
303.0 42236.0
303.0 42262.0
303.0 42290.0
303.0 42323.0
303.0 42360.0
303.0 42396.0
306.0 42042.0
306.0 42070.0
306.0 42098.0
306.0 42126.0
306.0 42154.0
306.0 42183.0
306.0 42210.0
306.0 42240.0
306.0 42273.0
306.0 42309.0
306.0 42350.0
306.0 42393.0
328.0 42040.0
328.0 42069.0
328.0 42097.0
328.0 42124.0
328.0 42151.0
328.0 42178.0
328.0 42205.0
328.0 42229.0
328.0 42254.0
328.0 42280.0
328.0 42307.0
328.0 42348.0
328.0 42390.0
334.0 42041.0
334.0 42068.0
334.0 42095.0
334.0 42120.0
334.0 42145.0
334.0 42169.0
334.0 42194.0
334.0 42217.0
334.0 42240.0
334.0 42263.0
334.0 42287.0
334.0 42312.0
334.0 42345.0
334.0 42382.0
347.0 42028.0
347.0 42043.0
347.0 42056.0
347.0 42071.0
347.0 42085.0
347.0 42100.0
347.0 42114.0
347.0 42128.0
347.0 42142.0
347.0 42156.0
347.0 42170.0
347.0 42184.0
347.0 42197.0
347.0 42210.0
347.0 42223.0
347.0 42236.0
347.0 42249.0
347.0 42262.0
347.0 42275.0
347.0 42288.0
347.0 42301.0
347.0 42317.0
347.0 42333.0
347.0 42350.0
347.0 42366.0
347.0 42383.0
366.0 42042.0
366.0 42067.0
366.0 42094.0
366.0 42118.0
366.0 42143.0
366.0 42167.0
366.0 42190.0
366.0 42213.0
366.0 42234.0
366.0 42255.0
366.0 42277.0
366.0 42301.0
366.0 42331.0
366.0 42365.0
368.0 42253.0
377.0 42235.0
377.0 42298.0
382.0 42043.0
382.0 42073.0
382.0 42103.0
382.0 42131.0
382.0 42159.0
382.0 42187.0
382.0 42212.0
382.0 42236.0
382.0 42263.0
382.0 42289.0
382.0 42324.0
382.0 42366.0
383.0 42232.0
383.0 42286.0
428.0 42044.0
428.0 42072.0
428.0 42100.0
428.0 42128.0
428.0 42156.0
428.0 42184.0
428.0 42209.0
428.0 42236.0
428.0 42266.0
428.0 42297.0
428.0 42337.0
428.0 42379.0
434.0 42043.0
434.0 42071.0
434.0 42101.0
434.0 42130.0
434.0 42160.0
434.0 42189.0
434.0 42216.0
434.0 42250.0
434.0 42286.0
434.0 42330.0
434.0 42374.0
435.0 42043.0
435.0 42070.0
435.0 42097.0
435.0 42124.0
435.0 42152.0
435.0 42180.0
435.0 42206.0
435.0 42233.0
435.0 42261.0
435.0 42290.0
435.0 42327.0
435.0 42366.0
449.0 42241.0
449.0 42296.0
450.0 42040.0
450.0 42067.0
450.0 42093.0
450.0 42119.0
450.0 42145.0
450.0 42171.0
450.0 42195.0
450.0 42220.0
450.0 42250.0
450.0 42280.0
450.0 42318.0
450.0 42357.0
450.0 42396.0
456.0 42044.0
456.0 42072.0
456.0 42101.0
456.0 42126.0
456.0 42152.0
456.0 42178.0
456.0 42203.0
456.0 42224.0
456.0 42244.0
456.0 42263.0
456.0 42284.0
456.0 42304.0
456.0 42327.0
456.0 42354.0
456.0 42380.0
466.0 42231.0
466.0 42288.0
468.0 42243.0
468.0 42305.0
474.0 42244.0
474.0 42304.0
475.0 42230.0
475.0 42291.0
477.0 42043.0
477.0 42071.0
477.0 42099.0
477.0 42126.0
477.0 42154.0
477.0 42183.0
477.0 42209.0
477.0 42239.0
477.0 42269.0
477.0 42303.0
477.0 42353.0
477.0 42395.0
478.0 42262.0
487.0 42041.0
487.0 42068.0
487.0 42097.0
487.0 42123.0
487.0 42149.0
487.0 42175.0
487.0 42201.0
487.0 42224.0
487.0 42249.0
487.0 42274.0
487.0 42299.0
487.0 42334.0
487.0 42373.0
488.0 42302.0
493.0 42256.0
496.0 42276.0
513.0 42282.0
558.0 42043.0
558.0 42069.0
558.0 42096.0
558.0 42122.0
558.0 42148.0
558.0 42173.0
558.0 42199.0
558.0 42223.0
558.0 42253.0
558.0 42281.0
558.0 42319.0
558.0 42361.0
580.0 42043.0
580.0 42072.0
580.0 42101.0
580.0 42131.0
580.0 42163.0
580.0 42192.0
580.0 42220.0
580.0 42254.0
580.0 42285.0
580.0 42330.0
580.0 42380.0
581.0 42260.0
589.0 42276.0
591.0 42041.0
591.0 42066.0
591.0 42093.0
591.0 42117.0
591.0 42141.0
591.0 42166.0
591.0 42189.0
591.0 42211.0
591.0 42230.0
591.0 42249.0
591.0 42267.0
591.0 42286.0
591.0 42306.0
591.0 42329.0
591.0 42354.0
591.0 42378.0
598.0 42291.0
599.0 42029.0
599.0 42045.0
599.0 42060.0
599.0 42075.0
599.0 42090.0
599.0 42105.0
599.0 42119.0
599.0 42133.0
599.0 42148.0
599.0 42162.0
599.0 42177.0
599.0 42192.0
599.0 42206.0
599.0 42219.0
599.0 42232.0
599.0 42246.0
599.0 42260.0
599.0 42274.0
599.0 42288.0
599.0 42302.0
599.0 42318.0
599.0 42335.0
599.0 42352.0
599.0 42368.0
599.0 42385.0
601.0 42252.0
605.0 42040.0
605.0 42064.0
605.0 42088.0
605.0 42110.0
605.0 42133.0
605.0 42155.0
605.0 42179.0
605.0 42201.0
605.0 42221.0
605.0 42241.0
605.0 42264.0
605.0 42285.0
605.0 42307.0
605.0 42336.0
605.0 42366.0
607.0 42043.0
607.0 42070.0
607.0 42097.0
607.0 42123.0
607.0 42149.0
607.0 42175.0
607.0 42200.0
607.0 42225.0
607.0 42254.0
607.0 42283.0
607.0 42314.0
607.0 42351.0
607.0 42388.0
612.0 42240.0
612.0 42304.0
613.0 42255.0
623.0 42041.0
623.0 42068.0
623.0 42096.0
623.0 42121.0
623.0 42146.0
623.0 42172.0
623.0 42198.0
623.0 42220.0
623.0 42245.0
623.0 42268.0
623.0 42292.0
623.0 42325.0
623.0 42362.0
625.0 42242.0
631.0 42257.0
632.0 42040.0
632.0 42065.0
632.0 42090.0
632.0 42113.0
632.0 42137.0
632.0 42160.0
632.0 42184.0
632.0 42206.0
632.0 42226.0
632.0 42247.0
632.0 42268.0
632.0 42290.0
632.0 42315.0
632.0 42346.0
632.0 42379.0
634.0 42275.0
641.0 42255.0
680.0 42007.0
680.0 42012.0
680.0 42016.0
680.0 42020.0
680.0 42024.0
680.0 42028.0
680.0 42032.0
680.0 42036.0
680.0 42040.0
680.0 42044.0
680.0 42048.0
680.0 42052.0
680.0 42056.0
680.0 42060.0
680.0 42064.0
680.0 42068.0
680.0 42072.0
680.0 42076.0
680.0 42080.0
680.0 42084.0
680.0 42088.0
680.0 42092.0
680.0 42096.0
680.0 42100.0
680.0 42104.0
680.0 42108.0
680.0 42112.0
680.0 42116.0
680.0 42120.0
680.0 42124.0
680.0 42128.0
680.0 42132.0
680.0 42136.0
680.0 42140.0
680.0 42144.0
680.0 42148.0
680.0 42152.0
680.0 42156.0
680.0 42160.0
680.0 42164.0
680.0 42168.0
680.0 42172.0
680.0 42176.0
680.0 42180.0
680.0 42184.0
680.0 42187.0
680.0 42191.0
680.0 42195.0
680.0 42198.0
680.0 42202.0
680.0 42206.0
680.0 42210.0
680.0 42214.0
680.0 42217.0
680.0 42221.0
680.0 42225.0
680.0 42228.0
680.0 42232.0
680.0 42236.0
680.0 42240.0
680.0 42244.0
680.0 42247.0
680.0 42251.0
680.0 42255.0
680.0 42258.0
680.0 42262.0
680.0 42266.0
680.0 42270.0
680.0 42274.0
680.0 42277.0
680.0 42281.0
680.0 42285.0
680.0 42289.0
680.0 42293.0
680.0 42297.0
680.0 42301.0
680.0 42305.0
680.0 42309.0
680.0 42313.0
680.0 42317.0
680.0 42321.0
680.0 42325.0
680.0 42329.0
680.0 42333.0
680.0 42337.0
680.0 42341.0
680.0 42345.0
680.0 42349.0
680.0 42353.0
680.0 42357.0
680.0 42361.0
680.0 42365.0
680.0 42369.0
680.0 42373.0
680.0 42377.0
680.0 42381.0
680.0 42385.0
680.0 42389.0
680.0 42393.0
680.0 42398.0
696.0 42057.0
696.0 42100.0
696.0 42142.0
696.0 42184.0
696.0 42226.0
696.0 42286.0
696.0 42349.0
708.0 42044.0
708.0 42074.0
708.0 42104.0
708.0 42134.0
708.0 42164.0
708.0 42194.0
708.0 42220.0
708.0 42246.0
708.0 42274.0
708.0 42301.0
708.0 42341.0
708.0 42391.0
709.0 42044.0
709.0 42069.0
709.0 42096.0
709.0 42121.0
709.0 42145.0
709.0 42171.0
709.0 42195.0
709.0 42220.0
709.0 42250.0
709.0 42280.0
709.0 42313.0
709.0 42349.0
709.0 42386.0
714.0 42058.0
714.0 42099.0
714.0 42141.0
714.0 42179.0
714.0 42216.0
714.0 42251.0
714.0 42284.0
714.0 42317.0
714.0 42348.0
714.0 42380.0
718.0 42042.0
718.0 42068.0
718.0 42093.0
718.0 42118.0
718.0 42143.0
718.0 42168.0
718.0 42192.0
718.0 42216.0
718.0 42245.0
718.0 42274.0
718.0 42305.0
718.0 42343.0
718.0 42381.0
725.0 42056.0
725.0 42093.0
725.0 42126.0
725.0 42159.0
725.0 42191.0
725.0 42220.0
725.0 42244.0
725.0 42269.0
725.0 42292.0
725.0 42315.0
725.0 42343.0
725.0 42370.0
725.0 42399.0
726.0 42262.0
734.0 42053.0
734.0 42088.0
734.0 42124.0
734.0 42159.0
734.0 42192.0
734.0 42227.0
734.0 42271.0
734.0 42319.0
734.0 42368.0
735.0 42051.0
735.0 42087.0
735.0 42120.0
735.0 42153.0
735.0 42184.0
735.0 42213.0
735.0 42237.0
735.0 42261.0
735.0 42286.0
735.0 42309.0
735.0 42335.0
735.0 42364.0
735.0 42394.0
736.0 42042.0
736.0 42067.0
736.0 42093.0
736.0 42116.0
736.0 42139.0
736.0 42163.0
736.0 42187.0
736.0 42208.0
736.0 42227.0
736.0 42246.0
736.0 42265.0
736.0 42284.0
736.0 42303.0
736.0 42327.0
736.0 42352.0
736.0 42375.0
738.0 42058.0
738.0 42102.0
738.0 42142.0
738.0 42183.0
738.0 42221.0
738.0 42257.0
738.0 42295.0
738.0 42331.0
738.0 42367.0
743.0 42271.0
744.0 42060.0
744.0 42100.0
744.0 42141.0
744.0 42180.0
744.0 42220.0
744.0 42270.0
744.0 42333.0
744.0 42393.0
745.0 42041.0
745.0 42068.0
745.0 42096.0
745.0 42122.0
745.0 42148.0
745.0 42174.0
745.0 42200.0
745.0 42222.0
745.0 42246.0
745.0 42268.0
745.0 42292.0
745.0 42325.0
745.0 42362.0
751.0 42278.0
754.0 42261.0
762.0 42225.0
762.0 42273.0
763.0 42006.0
763.0 42010.0
763.0 42014.0
763.0 42018.0
763.0 42022.0
763.0 42026.0
763.0 42030.0
763.0 42034.0
763.0 42038.0
763.0 42042.0
763.0 42046.0
763.0 42050.0
763.0 42054.0
763.0 42058.0
763.0 42062.0
763.0 42066.0
763.0 42070.0
763.0 42074.0
763.0 42078.0
763.0 42082.0
763.0 42086.0
763.0 42090.0
763.0 42094.0
763.0 42098.0
763.0 42101.0
763.0 42105.0
763.0 42109.0
763.0 42112.0
763.0 42116.0
763.0 42120.0
763.0 42124.0
763.0 42128.0
763.0 42131.0
763.0 42135.0
763.0 42139.0
763.0 42142.0
763.0 42146.0
763.0 42150.0
763.0 42154.0
763.0 42158.0
763.0 42161.0
763.0 42165.0
763.0 42169.0
763.0 42172.0
763.0 42176.0
763.0 42180.0
763.0 42184.0
763.0 42188.0
763.0 42191.0
763.0 42195.0
763.0 42198.0
763.0 42202.0
763.0 42205.0
763.0 42208.0
763.0 42211.0
763.0 42214.0
763.0 42217.0
763.0 42220.0
763.0 42223.0
763.0 42226.0
763.0 42229.0
763.0 42232.0
763.0 42235.0
763.0 42238.0
763.0 42241.0
763.0 42244.0
763.0 42247.0
763.0 42250.0
763.0 42253.0
763.0 42256.0
763.0 42259.0
763.0 42262.0
763.0 42265.0
763.0 42268.0
763.0 42271.0
763.0 42274.0
763.0 42277.0
763.0 42280.0
763.0 42283.0
763.0 42286.0
763.0 42289.0
763.0 42292.0
763.0 42295.0
763.0 42298.0
763.0 42301.0
763.0 42304.0
763.0 42308.0
763.0 42312.0
763.0 42316.0
763.0 42319.0
763.0 42323.0
763.0 42327.0
763.0 42330.0
763.0 42334.0
763.0 42338.0
763.0 42342.0
763.0 42346.0
763.0 42349.0
763.0 42353.0
763.0 42357.0
763.0 42360.0
763.0 42364.0
763.0 42368.0
763.0 42372.0
763.0 42376.0
763.0 42380.0
763.0 42384.0
763.0 42388.0
763.0 42392.0
763.0 42396.0
841.0 42044.0
841.0 42076.0
841.0 42107.0
841.0 42137.0
841.0 42167.0
841.0 42197.0
841.0 42220.0
841.0 42243.0
841.0 42263.0
841.0 42286.0
841.0 42309.0
841.0 42336.0
841.0 42365.0
841.0 42396.0
842.0 42059.0
842.0 42104.0
842.0 42153.0
842.0 42195.0
842.0 42236.0
842.0 42273.0
842.0 42316.0
842.0 42356.0
842.0 42393.0
843.0 42044.0
843.0 42071.0
843.0 42099.0
843.0 42123.0
843.0 42148.0
843.0 42172.0
843.0 42195.0
843.0 42216.0
843.0 42235.0
843.0 42254.0
843.0 42273.0
843.0 42293.0
843.0 42313.0
843.0 42337.0
843.0 42362.0
843.0 42388.0
852.0 42057.0
852.0 42100.0
852.0 42141.0
852.0 42180.0
852.0 42218.0
852.0 42255.0
852.0 42286.0
852.0 42318.0
852.0 42350.0
852.0 42383.0
857.0 42061.0
857.0 42100.0
857.0 42138.0
857.0 42176.0
857.0 42207.0
857.0 42237.0
857.0 42268.0
857.0 42301.0
857.0 42331.0
857.0 42359.0
857.0 42391.0
860.0 42041.0
860.0 42065.0
860.0 42090.0
860.0 42113.0
860.0 42135.0
860.0 42158.0
860.0 42180.0
860.0 42202.0
860.0 42221.0
860.0 42239.0
860.0 42257.0
860.0 42275.0
860.0 42293.0
860.0 42312.0
860.0 42334.0
860.0 42358.0
860.0 42381.0
861.0 42043.0
861.0 42071.0
861.0 42098.0
861.0 42124.0
861.0 42150.0
861.0 42176.0
861.0 42201.0
861.0 42222.0
861.0 42242.0
861.0 42261.0
861.0 42281.0
861.0 42302.0
861.0 42327.0
861.0 42354.0
861.0 42380.0
866.0 42032.0
866.0 42050.0
866.0 42067.0
866.0 42084.0
866.0 42101.0
866.0 42117.0
866.0 42134.0
866.0 42151.0
866.0 42167.0
866.0 42183.0
866.0 42199.0
866.0 42214.0
866.0 42228.0
866.0 42242.0
866.0 42256.0
866.0 42270.0
866.0 42284.0
866.0 42298.0
866.0 42313.0
866.0 42328.0
866.0 42344.0
866.0 42359.0
866.0 42375.0
866.0 42391.0
870.0 42244.0
870.0 42307.0
880.0 42057.0
880.0 42094.0
880.0 42128.0
880.0 42160.0
880.0 42194.0
880.0 42221.0
880.0 42245.0
880.0 42271.0
880.0 42296.0
880.0 42322.0
880.0 42350.0
880.0 42379.0
881.0 42261.0
883.0 42268.0
894.0 42269.0
941.0 42059.0
941.0 42107.0
941.0 42160.0
941.0 42202.0
941.0 42249.0
941.0 42292.0
941.0 42332.0
941.0 42372.0
949.0 42056.0
949.0 42093.0
949.0 42129.0
949.0 42165.0
949.0 42199.0
949.0 42232.0
949.0 42266.0
949.0 42301.0
949.0 42332.0
949.0 42362.0
949.0 42393.0
950.0 42059.0
950.0 42111.0
950.0 42159.0
950.0 42203.0
950.0 42248.0
950.0 42290.0
950.0 42329.0
950.0 42366.0
959.0 42057.0
959.0 42101.0
959.0 42146.0
959.0 42189.0
959.0 42227.0
959.0 42264.0
959.0 42303.0
959.0 42338.0
959.0 42375.0
973.0 42056.0
973.0 42097.0
973.0 42136.0
973.0 42176.0
973.0 42211.0
973.0 42248.0
973.0 42283.0
973.0 42317.0
973.0 42350.0
973.0 42382.0
989.0 42251.0
991.0 42055.0
991.0 42098.0
991.0 42135.0
991.0 42177.0
991.0 42211.0
991.0 42245.0
991.0 42279.0
991.0 42314.0
991.0 42346.0
991.0 42378.0
992.0 42279.0
994.0 42266.0
1001.0 42061.0
1001.0 42105.0
1001.0 42146.0
1001.0 42188.0
1001.0 42221.0
1001.0 42248.0
1001.0 42277.0
1001.0 42304.0
1001.0 42335.0
1001.0 42368.0
1012.0 42055.0
1012.0 42097.0
1012.0 42134.0
1012.0 42169.0
1012.0 42202.0
1012.0 42229.0
1012.0 42256.0
1012.0 42280.0
1012.0 42305.0
1012.0 42335.0
1012.0 42365.0
1012.0 42397.0
1014.0 42274.0
1016.0 42064.0
1016.0 42108.0
1016.0 42149.0
1016.0 42190.0
1016.0 42224.0
1016.0 42254.0
1016.0 42284.0
1016.0 42312.0
1016.0 42347.0
1016.0 42382.0
1018.0 42263.0
1031.0 42243.0
1038.0 42057.0
1038.0 42099.0
1038.0 42135.0
1038.0 42172.0
1038.0 42207.0
1038.0 42233.0
1038.0 42258.0
1038.0 42284.0
1038.0 42308.0
1038.0 42337.0
1038.0 42367.0
1038.0 42399.0
1068.0 42059.0
1068.0 42105.0
1068.0 42147.0
1068.0 42190.0
1068.0 42228.0
1068.0 42265.0
1068.0 42304.0
1068.0 42338.0
1068.0 42372.0
1075.0 42060.0
1075.0 42106.0
1075.0 42149.0
1075.0 42192.0
1075.0 42231.0
1075.0 42271.0
1075.0 42309.0
1075.0 42346.0
1075.0 42383.0
1087.0 42063.0
1087.0 42107.0
1087.0 42151.0
1087.0 42191.0
1087.0 42229.0
1087.0 42266.0
1087.0 42303.0
1087.0 42340.0
1087.0 42376.0
1088.0 42063.0
1088.0 42111.0
1088.0 42160.0
1088.0 42202.0
1088.0 42244.0
1088.0 42288.0
1088.0 42328.0
1088.0 42367.0
1105.0 42053.0
1105.0 42086.0
1105.0 42121.0
1105.0 42154.0
1105.0 42188.0
1105.0 42221.0
1105.0 42252.0
1105.0 42282.0
1105.0 42311.0
1105.0 42340.0
1105.0 42370.0
1105.0 42399.0
1114.0 42054.0
1114.0 42093.0
1114.0 42130.0
1114.0 42163.0
1114.0 42197.0
1114.0 42228.0
1114.0 42261.0
1114.0 42295.0
1114.0 42326.0
1114.0 42356.0
1114.0 42387.0
1118.0 42057.0
1118.0 42103.0
1118.0 42147.0
1118.0 42189.0
1118.0 42227.0
1118.0 42265.0
1118.0 42303.0
1118.0 42336.0
1118.0 42371.0
1134.0 42249.0
1135.0 42067.0
1135.0 42122.0
1135.0 42175.0
1135.0 42223.0
1135.0 42265.0
1135.0 42309.0
1135.0 42351.0
1135.0 42391.0
1148.0 42265.0
1156.0 42057.0
1156.0 42101.0
1156.0 42139.0
1156.0 42176.0
1156.0 42211.0
1156.0 42238.0
1156.0 42264.0
1156.0 42290.0
1156.0 42317.0
1156.0 42350.0
1156.0 42383.0
1165.0 42056.0
1165.0 42098.0
1165.0 42134.0
1165.0 42173.0
1165.0 42208.0
1165.0 42236.0
1165.0 42266.0
1165.0 42295.0
1165.0 42326.0
1165.0 42357.0
1165.0 42391.0
1172.0 42057.0
1172.0 42099.0
1172.0 42136.0
1172.0 42176.0
1172.0 42212.0
1172.0 42240.0
1172.0 42267.0
1172.0 42293.0
1172.0 42321.0
1172.0 42353.0
1172.0 42386.0
1204.0 42062.0
1204.0 42105.0
1204.0 42149.0
1204.0 42192.0
1204.0 42231.0
1204.0 42268.0
1204.0 42307.0
1204.0 42343.0
1204.0 42378.0
1222.0 42059.0
1222.0 42099.0
1222.0 42139.0
1222.0 42179.0
1222.0 42213.0
1222.0 42250.0
1222.0 42289.0
1222.0 42324.0
1222.0 42356.0
1222.0 42389.0
1226.0 42056.0
1226.0 42093.0
1226.0 42129.0
1226.0 42164.0
1226.0 42196.0
1226.0 42229.0
1226.0 42262.0
1226.0 42291.0
1226.0 42323.0
1226.0 42353.0
1226.0 42385.0
1251.0 42060.0
1251.0 42101.0
1251.0 42138.0
1251.0 42174.0
1251.0 42209.0
1251.0 42235.0
1251.0 42260.0
1251.0 42287.0
1251.0 42310.0
1251.0 42339.0
1251.0 42370.0
1252.0 42250.0
1253.0 42060.0
1253.0 42107.0
1253.0 42151.0
1253.0 42193.0
1253.0 42225.0
1253.0 42254.0
1253.0 42283.0
1253.0 42309.0
1253.0 42344.0
1253.0 42380.0
1254.0 42060.0
1254.0 42104.0
1254.0 42145.0
1254.0 42187.0
1254.0 42224.0
1254.0 42261.0
1254.0 42296.0
1254.0 42332.0
1254.0 42369.0
1262.0 42289.0
1271.0 42297.0
1337.0 42060.0
1337.0 42102.0
1337.0 42144.0
1337.0 42186.0
1337.0 42223.0
1337.0 42261.0
1337.0 42299.0
1337.0 42334.0
1337.0 42369.0
1340.0 42061.0
1340.0 42105.0
1340.0 42146.0
1340.0 42187.0
1340.0 42224.0
1340.0 42263.0
1340.0 42300.0
1340.0 42334.0
1340.0 42370.0
1345.0 42062.0
1345.0 42107.0
1345.0 42151.0
1345.0 42193.0
1345.0 42233.0
1345.0 42272.0
1345.0 42311.0
1345.0 42348.0
1345.0 42384.0
1390.0 42060.0
1390.0 42104.0
1390.0 42144.0
1390.0 42181.0
1390.0 42216.0
1390.0 42243.0
1390.0 42270.0
1390.0 42298.0
1390.0 42326.0
1390.0 42357.0
1390.0 42390.0
1404.0 42062.0
1404.0 42107.0
1404.0 42147.0
1404.0 42188.0
1404.0 42220.0
1404.0 42248.0
1404.0 42277.0
1404.0 42304.0
1404.0 42336.0
1404.0 42368.0
1417.0 42068.0
1417.0 42122.0
1417.0 42178.0
1417.0 42224.0
1417.0 42271.0
1417.0 42315.0
1417.0 42355.0
1417.0 42396.0
1418.0 42062.0
1418.0 42107.0
1418.0 42151.0
1418.0 42194.0
1418.0 42235.0
1418.0 42273.0
1418.0 42312.0
1418.0 42350.0
1418.0 42387.0
1423.0 42062.0
1423.0 42110.0
1423.0 42158.0
1423.0 42201.0
1423.0 42241.0
1423.0 42283.0
1423.0 42321.0
1423.0 42359.0
1423.0 42396.0
1442.0 42009.0
1442.0 42015.0
1442.0 42021.0
1442.0 42027.0
1442.0 42033.0
1442.0 42039.0
1442.0 42045.0
1442.0 42051.0
1442.0 42057.0
1442.0 42063.0
1442.0 42069.0
1442.0 42075.0
1442.0 42081.0
1442.0 42087.0
1442.0 42093.0
1442.0 42099.0
1442.0 42105.0
1442.0 42111.0
1442.0 42117.0
1442.0 42123.0
1442.0 42129.0
1442.0 42135.0
1442.0 42141.0
1442.0 42147.0
1442.0 42153.0
1442.0 42159.0
1442.0 42165.0
1442.0 42171.0
1442.0 42177.0
1442.0 42183.0
1442.0 42189.0
1442.0 42195.0
1442.0 42201.0
1442.0 42207.0
1442.0 42213.0
1442.0 42219.0
1442.0 42225.0
1442.0 42231.0
1442.0 42237.0
1442.0 42243.0
1442.0 42249.0
1442.0 42255.0
1442.0 42261.0
1442.0 42267.0
1442.0 42273.0
1442.0 42279.0
1442.0 42285.0
1442.0 42291.0
1442.0 42296.0
1442.0 42301.0
1442.0 42306.0
1442.0 42311.0
1442.0 42316.0
1442.0 42321.0
1442.0 42326.0
1442.0 42331.0
1442.0 42336.0
1442.0 42341.0
1442.0 42346.0
1442.0 42351.0
1442.0 42356.0
1442.0 42361.0
1442.0 42366.0
1442.0 42371.0
1442.0 42376.0
1442.0 42381.0
1442.0 42386.0
1442.0 42391.0
1442.0 42399.0
