680.0 46806.0
763.0 46806.0
1442.0 46807.0
26.0 46809.0
680.0 46810.0
763.0 46810.0
1442.0 46813.0
680.0 46814.0
763.0 46814.0
26.0 46815.0
763.0 46817.0
680.0 46818.0
1442.0 46818.0
26.0 46821.0
763.0 46821.0
680.0 46822.0
1442.0 46823.0
763.0 46824.0
680.0 46826.0
26.0 46827.0
763.0 46828.0
1442.0 46828.0
866.0 46829.0
347.0 46830.0
599.0 46830.0
680.0 46830.0
763.0 46831.0
26.0 46833.0
1442.0 46833.0
680.0 46834.0
763.0 46834.0
860.0 46836.0
736.0 46837.0
763.0 46837.0
26.0 46838.0
591.0 46838.0
680.0 46838.0
1442.0 46838.0
456.0 46839.0
841.0 46839.0
843.0 46839.0
861.0 46839.0
763.0 46840.0
735.0 46841.0
1038.0 46841.0
1165.0 46841.0
680.0 46842.0
1012.0 46842.0
1156.0 46842.0
1172.0 46842.0
26.0 46843.0
605.0 46843.0
763.0 46843.0
1001.0 46843.0
1251.0 46843.0
1253.0 46843.0
1390.0 46843.0
1442.0 46843.0
217.0 46844.0
328.0 46844.0
632.0 46844.0
725.0 46844.0
866.0 46844.0
1404.0 46844.0
112.0 46845.0
224.0 46845.0
227.0 46845.0
232.0 46845.0
241.0 46845.0
258.0 46845.0
259.0 46845.0
334.0 46845.0
347.0 46845.0
366.0 46845.0
487.0 46845.0
599.0 46845.0
623.0 46845.0
745.0 46845.0
880.0 46845.0
680.0 46846.0
763.0 46846.0
1016.0 46846.0
129.0 46847.0
382.0 46847.0
852.0 46847.0
973.0 46847.0
1105.0 46847.0
1226.0 46847.0
26.0 46848.0
991.0 46848.0
1114.0 46848.0
1337.0 46848.0
1340.0 46848.0
1442.0 46848.0
303.0 46849.0
450.0 46849.0
708.0 46849.0
714.0 46849.0
763.0 46849.0
857.0 46849.0
950.0 46849.0
1254.0 46849.0
1423.0 46849.0
428.0 46850.0
680.0 46850.0
718.0 46850.0
738.0 46850.0
941.0 46850.0
949.0 46850.0
1068.0 46850.0
1075.0 46850.0
1088.0 46850.0
1222.0 46850.0
14.0 46851.0
185.0 46851.0
296.0 46851.0
709.0 46851.0
1087.0 46851.0
1204.0 46851.0
1345.0 46851.0
87.0 46852.0
306.0 46852.0
607.0 46852.0
763.0 46852.0
1118.0 46852.0
1418.0 46852.0
26.0 46853.0
62.0 46853.0
166.0 46853.0
286.0 46853.0
434.0 46853.0
435.0 46853.0
477.0 46853.0
558.0 46853.0
842.0 46853.0
959.0 46853.0
1135.0 46853.0
1417.0 46853.0
1442.0 46853.0
159.0 46854.0
580.0 46854.0
680.0 46854.0
157.0 46855.0
763.0 46855.0
860.0 46855.0
167.0 46856.0
736.0 46857.0
866.0 46857.0
26.0 46858.0
347.0 46858.0
591.0 46858.0
680.0 46858.0
763.0 46858.0
843.0 46858.0
1442.0 46858.0
599.0 46859.0
165.0 46860.0
456.0 46860.0
734.0 46860.0
861.0 46860.0
744.0 46861.0
26.0 46862.0
680.0 46862.0
763.0 46862.0
841.0 46862.0
735.0 46863.0
1442.0 46863.0
605.0 46864.0
696.0 46865.0
725.0 46865.0
1038.0 46865.0
26.0 46866.0
232.0 46866.0
241.0 46866.0
680.0 46866.0
763.0 46866.0
1165.0 46866.0
224.0 46867.0
1012.0 46867.0
1172.0 46867.0
1251.0 46867.0
112.0 46868.0
217.0 46868.0
366.0 46868.0
632.0 46868.0
880.0 46868.0
1390.0 46868.0
334.0 46869.0
1156.0 46869.0
1442.0 46869.0
26.0 46870.0
328.0 46870.0
680.0 46870.0
763.0 46870.0
227.0 46871.0
258.0 46871.0
259.0 46871.0
487.0 46871.0
1001.0 46871.0
129.0 46872.0
347.0 46872.0
623.0 46872.0
745.0 46872.0
866.0 46872.0
1253.0 46872.0
1404.0 46872.0
763.0 46873.0
26.0 46874.0
599.0 46874.0
680.0 46874.0
382.0 46875.0
1105.0 46875.0
1442.0 46875.0
303.0 46876.0
1016.0 46876.0
296.0 46877.0
450.0 46877.0
708.0 46877.0
763.0 46877.0
860.0 46877.0
26.0 46878.0
680.0 46878.0
718.0 46878.0
185.0 46879.0
1226.0 46879.0
14.0 46880.0
428.0 46880.0
607.0 46880.0
709.0 46880.0
736.0 46880.0
857.0 46880.0
87.0 46881.0
763.0 46881.0
843.0 46881.0
1442.0 46881.0
26.0 46882.0
286.0 46882.0
306.0 46882.0
435.0 46882.0
558.0 46882.0
591.0 46882.0
680.0 46882.0
852.0 46882.0
973.0 46882.0
62.0 46883.0
166.0 46883.0
949.0 46883.0
157.0 46884.0
159.0 46884.0
434.0 46884.0
456.0 46884.0
477.0 46884.0
714.0 46884.0
763.0 46884.0
861.0 46884.0
991.0 46884.0
1114.0 46884.0
347.0 46885.0
580.0 46885.0
26.0 46886.0
680.0 46886.0
1222.0 46886.0
167.0 46887.0
605.0 46887.0
1340.0 46887.0
1442.0 46887.0
599.0 46888.0
738.0 46888.0
763.0 46888.0
866.0 46888.0
1337.0 46888.0
232.0 46889.0
841.0 46889.0
1068.0 46889.0
1087.0 46889.0
26.0 46890.0
224.0 46890.0
241.0 46890.0
680.0 46890.0
1075.0 46890.0
1254.0 46890.0
366.0 46891.0
1118.0 46891.0
112.0 46892.0
632.0 46892.0
763.0 46892.0
959.0 46892.0
1204.0 46892.0
217.0 46893.0
734.0 46893.0
735.0 46893.0
1345.0 46893.0
1423.0 46893.0
1442.0 46893.0
26.0 46894.0
334.0 46894.0
680.0 46894.0
941.0 46894.0
950.0 46894.0
1088.0 46894.0
165.0 46895.0
725.0 46896.0
763.0 46896.0
227.0 46897.0
258.0 46897.0
328.0 46897.0
487.0 46897.0
1418.0 46897.0
26.0 46898.0
129.0 46898.0
259.0 46898.0
623.0 46898.0
680.0 46898.0
745.0 46898.0
842.0 46898.0
347.0 46899.0
1442.0 46899.0
303.0 46900.0
744.0 46900.0
763.0 46900.0
860.0 46900.0
1038.0 46900.0
296.0 46901.0
26.0 46902.0
880.0 46902.0
382.0 46903.0
450.0 46903.0
599.0 46903.0
680.0 46903.0
1251.0 46903.0
696.0 46904.0
718.0 46904.0
736.0 46904.0
763.0 46904.0
1012.0 46904.0
1135.0 46904.0
1165.0 46904.0
1417.0 46904.0
185.0 46905.0
866.0 46905.0
1172.0 46905.0
1442.0 46905.0
26.0 46906.0
607.0 46906.0
708.0 46906.0
843.0 46906.0
591.0 46907.0
680.0 46907.0
709.0 46908.0
763.0 46908.0
1390.0 46908.0
14.0 46909.0
428.0 46909.0
558.0 46909.0
1156.0 46909.0
26.0 46910.0
605.0 46910.0
286.0 46911.0
435.0 46911.0
1442.0 46911.0
62.0 46912.0
87.0 46912.0
166.0 46912.0
306.0 46912.0
456.0 46912.0
763.0 46912.0
861.0 46912.0
1105.0 46912.0
157.0 46913.0
159.0 46913.0
232.0 46913.0
347.0 46913.0
680.0 46913.0
26.0 46914.0
224.0 46914.0
241.0 46914.0
477.0 46914.0
1404.0 46915.0
366.0 46916.0
434.0 46916.0
632.0 46916.0
763.0 46916.0
1001.0 46916.0
26.0 46917.0
1442.0 46917.0
112.0 46918.0
680.0 46918.0
167.0 46919.0
580.0 46919.0
599.0 46919.0
1016.0 46919.0
217.0 46920.0
763.0 46920.0
26.0 46921.0
334.0 46921.0
1253.0 46921.0
258.0 46923.0
487.0 46923.0
680.0 46923.0
1226.0 46923.0
1442.0 46923.0
26.0 46924.0
328.0 46924.0
623.0 46924.0
745.0 46924.0
763.0 46924.0
129.0 46925.0
227.0 46925.0
866.0 46925.0
259.0 46926.0
841.0 46926.0
734.0 46927.0
26.0 46928.0
347.0 46928.0
763.0 46928.0
860.0 46928.0
296.0 46929.0
303.0 46929.0
680.0 46929.0
735.0 46929.0
857.0 46929.0
1442.0 46929.0
382.0 46930.0
26.0 46931.0
725.0 46931.0
763.0 46932.0
450.0 46933.0
605.0 46933.0
26.0 46934.0
165.0 46934.0
185.0 46934.0
718.0 46934.0
232.0 46935.0
599.0 46935.0
680.0 46935.0
708.0 46935.0
736.0 46935.0
744.0 46935.0
1442.0 46935.0
607.0 46936.0
763.0 46936.0
26.0 46937.0
224.0 46937.0
241.0 46937.0
709.0 46938.0
880.0 46938.0
14.0 46939.0
632.0 46939.0
26.0 46940.0
112.0 46940.0
366.0 46940.0
763.0 46940.0
286.0 46941.0
428.0 46941.0
558.0 46941.0
591.0 46941.0
680.0 46941.0
696.0 46941.0
1442.0 46941.0
62.0 46942.0
87.0 46942.0
347.0 46942.0
435.0 46942.0
843.0 46942.0
26.0 46943.0
166.0 46943.0
217.0 46943.0
334.0 46943.0
1038.0 46943.0
1251.0 46943.0
306.0 46944.0
763.0 46944.0
159.0 46945.0
477.0 46945.0
1012.0 46945.0
26.0 46946.0
157.0 46946.0
258.0 46946.0
328.0 46946.0
745.0 46946.0
866.0 46946.0
129.0 46947.0
487.0 46947.0
623.0 46947.0
680.0 46947.0
1165.0 46947.0
1442.0 46947.0
434.0 46948.0
763.0 46948.0
861.0 46948.0
1172.0 46948.0
26.0 46949.0
227.0 46949.0
259.0 46949.0
167.0 46951.0
580.0 46951.0
599.0 46951.0
1156.0 46951.0
1390.0 46951.0
26.0 46952.0
763.0 46952.0
382.0 46953.0
456.0 46953.0
605.0 46953.0
680.0 46953.0
1442.0 46953.0
296.0 46954.0
303.0 46954.0
734.0 46954.0
26.0 46955.0
232.0 46955.0
347.0 46956.0
763.0 46956.0
224.0 46957.0
241.0 46957.0
26.0 46958.0
450.0 46959.0
632.0 46959.0
680.0 46959.0
708.0 46959.0
1404.0 46959.0
1442.0 46959.0
112.0 46960.0
366.0 46960.0
718.0 46960.0
763.0 46960.0
26.0 46961.0
185.0 46961.0
607.0 46963.0
26.0 46964.0
217.0 46964.0
334.0 46964.0
744.0 46964.0
763.0 46964.0
860.0 46964.0
1001.0 46964.0
680.0 46965.0
709.0 46965.0
1442.0 46965.0
14.0 46966.0
258.0 46966.0
599.0 46966.0
735.0 46966.0
1016.0 46966.0
26.0 46967.0
165.0 46967.0
623.0 46967.0
745.0 46967.0
866.0 46967.0
129.0 46968.0
286.0 46968.0
328.0 46968.0
487.0 46968.0
558.0 46968.0
696.0 46968.0
763.0 46968.0
85.0 46969.0
428.0 46969.0
1253.0 46969.0
26.0 46970.0
347.0 46970.0
435.0 46970.0
62.0 46971.0
166.0 46971.0
206.0 46971.0
227.0 46971.0
259.0 46971.0
680.0 46971.0
725.0 46971.0
736.0 46971.0
1442.0 46971.0
87.0 46972.0
306.0 46972.0
477.0 46972.0
605.0 46972.0
763.0 46972.0
26.0 46973.0
159.0 46973.0
157.0 46974.0
880.0 46974.0
232.0 46975.0
841.0 46975.0
26.0 46976.0
318.0 46976.0
382.0 46976.0
620.0 46976.0
843.0 46976.0
224.0 46977.0
231.0 46977.0
241.0 46977.0
680.0 46977.0
763.0 46977.0
1442.0 46977.0
167.0 46978.0
204.0 46978.0
296.0 46978.0
303.0 46978.0
434.0 46978.0
26.0 46979.0
632.0 46979.0
734.0 46979.0
112.0 46980.0
96.0 46981.0
366.0 46981.0
580.0 46981.0
595.0 46981.0
599.0 46981.0
763.0 46981.0
26.0 46982.0
457.0 46983.0
680.0 46983.0
708.0 46983.0
1442.0 46983.0
334.0 46984.0
347.0 46984.0
450.0 46984.0
26.0 46985.0
122.0 46985.0
718.0 46985.0
217.0 46986.0
591.0 46987.0
763.0 46987.0
1251.0 46987.0
26.0 46988.0
185.0 46988.0
258.0 46988.0
866.0 46988.0
129.0 46989.0
328.0 46989.0
680.0 46989.0
709.0 46989.0
1442.0 46989.0
487.0 46990.0
607.0 46990.0
745.0 46990.0
26.0 46991.0
316.0 46991.0
623.0 46991.0
744.0 46991.0
763.0 46992.0
14.0 46993.0
605.0 46993.0
26.0 46994.0
30.0 46994.0
221.0 46994.0
227.0 46994.0
259.0 46994.0
286.0 46994.0
8.0 46995.0
558.0 46995.0
680.0 46995.0
696.0 46995.0
861.0 46995.0
1442.0 46995.0
26.0 46997.0
232.0 46997.0
763.0 46997.0
428.0 46998.0
477.0 46998.0
599.0 46998.0
224.0 46999.0
435.0 46999.0
62.0 47000.0
165.0 47000.0
166.0 47000.0
241.0 47000.0
306.0 47000.0
347.0 47000.0
733.0 47000.0
26.0 47001.0
87.0 47001.0
159.0 47001.0
632.0 47001.0
680.0 47001.0
1442.0 47001.0
296.0 47002.0
382.0 47002.0
112.0 47003.0
157.0 47003.0
303.0 47003.0
734.0 47003.0
763.0 47003.0
26.0 47004.0
167.0 47006.0
26.0 47007.0
366.0 47007.0
680.0 47007.0
1442.0 47007.0
434.0 47008.0
763.0 47009.0
26.0 47010.0
334.0 47010.0
450.0 47010.0
580.0 47012.0
26.0 47013.0
680.0 47013.0
718.0 47013.0
1442.0 47013.0
217.0 47014.0
866.0 47014.0
708.0 47015.0
763.0 47015.0
129.0 47016.0
258.0 47016.0
599.0 47016.0
26.0 47017.0
185.0 47017.0
347.0 47017.0
709.0 47017.0
328.0 47018.0
487.0 47018.0
607.0 47019.0
680.0 47019.0
745.0 47019.0
1442.0 47019.0
26.0 47020.0
605.0 47020.0
623.0 47020.0
744.0 47021.0
763.0 47021.0
26.0 47023.0
286.0 47023.0
232.0 47024.0
14.0 47025.0
259.0 47025.0
696.0 47025.0
1442.0 47025.0
26.0 47026.0
227.0 47026.0
558.0 47026.0
224.0 47027.0
477.0 47027.0
680.0 47027.0
763.0 47027.0
241.0 47028.0
26.0 47029.0
632.0 47029.0
112.0 47031.0
296.0 47031.0
303.0 47031.0
435.0 47031.0
1442.0 47031.0
166.0 47032.0
734.0 47032.0
26.0 47033.0
62.0 47033.0
159.0 47033.0
306.0 47033.0
428.0 47033.0
763.0 47033.0
382.0 47034.0
87.0 47035.0
157.0 47035.0
599.0 47035.0
680.0 47035.0
26.0 47036.0
347.0 47036.0
366.0 47037.0
1442.0 47037.0
26.0 47039.0
763.0 47039.0
334.0 47040.0
167.0 47041.0
450.0 47041.0
26.0 47042.0
165.0 47042.0
680.0 47043.0
1442.0 47043.0
217.0 47044.0
26.0 47045.0
129.0 47045.0
763.0 47045.0
866.0 47045.0
258.0 47047.0
434.0 47047.0
605.0 47047.0
328.0 47048.0
487.0 47048.0
718.0 47048.0
26.0 47049.0
745.0 47049.0
1442.0 47049.0
580.0 47050.0
623.0 47051.0
680.0 47051.0
708.0 47051.0
744.0 47051.0
763.0 47051.0
26.0 47052.0
185.0 47052.0
232.0 47052.0
709.0 47054.0
26.0 47055.0
696.0 47055.0
1442.0 47055.0
224.0 47056.0
347.0 47056.0
599.0 47056.0
241.0 47057.0
259.0 47057.0
607.0 47057.0
763.0 47057.0
26.0 47058.0
112.0 47059.0
227.0 47059.0
632.0 47059.0
680.0 47059.0
14.0 47061.0
26.0 47061.0
286.0 47061.0
1442.0 47061.0
477.0 47062.0
734.0 47062.0
558.0 47063.0
763.0 47063.0
296.0 47064.0
26.0 47065.0
303.0 47065.0
435.0 47066.0
366.0 47067.0
382.0 47067.0
680.0 47067.0
1442.0 47067.0
26.0 47068.0
763.0 47069.0
26.0 47071.0
334.0 47071.0
159.0 47072.0
306.0 47072.0
62.0 47073.0
166.0 47073.0
1442.0 47073.0
26.0 47074.0
87.0 47074.0
157.0 47074.0
129.0 47075.0
217.0 47075.0
347.0 47075.0
605.0 47075.0
680.0 47075.0
763.0 47075.0
26.0 47077.0
258.0 47077.0
428.0 47077.0
599.0 47077.0
450.0 47078.0
487.0 47078.0
1442.0 47079.0
167.0 47080.0
328.0 47080.0
745.0 47080.0
866.0 47080.0
26.0 47081.0
232.0 47081.0
763.0 47081.0
744.0 47082.0
623.0 47083.0
680.0 47083.0
718.0 47083.0
26.0 47084.0
696.0 47085.0
1442.0 47085.0
224.0 47086.0
26.0 47087.0
241.0 47087.0
708.0 47087.0
763.0 47087.0
112.0 47088.0
185.0 47088.0
259.0 47089.0
434.0 47089.0
632.0 47089.0
26.0 47090.0
165.0 47090.0
580.0 47090.0
680.0 47091.0
734.0 47091.0
1442.0 47091.0
227.0 47092.0
26.0 47093.0
709.0 47093.0
763.0 47093.0
347.0 47095.0
26.0 47097.0
286.0 47097.0
366.0 47097.0
607.0 47097.0
1442.0 47097.0
14.0 47098.0
296.0 47098.0
477.0 47098.0
599.0 47098.0
303.0 47099.0
382.0 47099.0
680.0 47099.0
763.0 47099.0
26.0 47100.0
558.0 47101.0
26.0 47103.0
334.0 47103.0
1442.0 47103.0
435.0 47104.0
605.0 47104.0
129.0 47105.0
763.0 47105.0
26.0 47106.0
217.0 47106.0
680.0 47107.0
258.0 47108.0
26.0 47109.0
232.0 47109.0
487.0 47109.0
1442.0 47109.0
159.0 47111.0
306.0 47111.0
328.0 47111.0
763.0 47111.0
62.0 47112.0
166.0 47112.0
450.0 47112.0
745.0 47112.0
26.0 47113.0
157.0 47113.0
347.0 47113.0
744.0 47113.0
623.0 47114.0
866.0 47114.0
87.0 47115.0
680.0 47115.0
696.0 47115.0
1442.0 47115.0
26.0 47116.0
224.0 47116.0
241.0 47117.0
763.0 47117.0
112.0 47118.0
26.0 47119.0
428.0 47119.0
632.0 47119.0
718.0 47119.0
167.0 47120.0
599.0 47120.0
259.0 47121.0
734.0 47121.0
1442.0 47121.0
26.0 47122.0
185.0 47123.0
680.0 47123.0
708.0 47123.0
763.0 47123.0
26.0 47125.0
227.0 47125.0
366.0 47127.0
1442.0 47127.0
580.0 47128.0
26.0 47129.0
709.0 47129.0
763.0 47129.0
434.0 47130.0
605.0 47130.0
303.0 47131.0
382.0 47131.0
680.0 47131.0
26.0 47132.0
347.0 47133.0
1442.0 47133.0
296.0 47134.0
607.0 47134.0
26.0 47135.0
129.0 47135.0
286.0 47135.0
334.0 47135.0
763.0 47135.0
14.0 47137.0
165.0 47137.0
232.0 47137.0
477.0 47137.0
26.0 47138.0
217.0 47138.0
558.0 47138.0
487.0 47139.0
680.0 47139.0
1442.0 47139.0
258.0 47140.0
26.0 47141.0
599.0 47141.0
763.0 47141.0
224.0 47143.0
328.0 47143.0
435.0 47143.0
745.0 47143.0
623.0 47144.0
26.0 47145.0
680.0 47145.0
696.0 47145.0
744.0 47145.0
1442.0 47145.0
241.0 47146.0
450.0 47146.0
112.0 47147.0
632.0 47147.0
763.0 47147.0
866.0 47147.0
26.0 47148.0
159.0 47149.0
306.0 47149.0
62.0 47150.0
166.0 47150.0
26.0 47151.0
157.0 47151.0
347.0 47151.0
680.0 47151.0
734.0 47151.0
1442.0 47151.0
718.0 47152.0
87.0 47153.0
259.0 47153.0
763.0 47153.0
26.0 47154.0
167.0 47156.0
26.0 47157.0
185.0 47157.0
428.0 47157.0
680.0 47157.0
1442.0 47157.0
227.0 47158.0
366.0 47158.0
605.0 47159.0
708.0 47159.0
763.0 47159.0
599.0 47160.0
26.0 47161.0
709.0 47161.0
303.0 47162.0
580.0 47162.0
296.0 47163.0
382.0 47163.0
680.0 47163.0
1442.0 47163.0
26.0 47164.0
129.0 47165.0
232.0 47165.0
763.0 47165.0
434.0 47166.0
607.0 47166.0
26.0 47167.0
286.0 47167.0
334.0 47167.0
558.0 47168.0
14.0 47169.0
347.0 47169.0
477.0 47169.0
487.0 47169.0
680.0 47169.0
1442.0 47169.0
26.0 47170.0
217.0 47170.0
224.0 47171.0
258.0 47171.0
763.0 47171.0
26.0 47173.0
328.0 47174.0
435.0 47174.0
623.0 47174.0
745.0 47174.0
165.0 47175.0
241.0 47175.0
450.0 47175.0
680.0 47175.0
1442.0 47175.0
26.0 47176.0
112.0 47176.0
632.0 47176.0
696.0 47176.0
744.0 47176.0
866.0 47176.0
763.0 47177.0
599.0 47178.0
26.0 47179.0
159.0 47179.0
306.0 47180.0
718.0 47180.0
734.0 47180.0
62.0 47181.0
157.0 47181.0
166.0 47181.0
680.0 47181.0
1442.0 47181.0
26.0 47182.0
259.0 47183.0
763.0 47183.0
87.0 47184.0
26.0 47185.0
605.0 47185.0
167.0 47186.0
185.0 47186.0
347.0 47187.0
366.0 47187.0
680.0 47187.0
1442.0 47187.0
26.0 47188.0
227.0 47188.0
303.0 47188.0
428.0 47189.0
763.0 47189.0
296.0 47190.0
709.0 47190.0
26.0 47191.0
232.0 47191.0
708.0 47192.0
129.0 47193.0
382.0 47193.0
580.0 47193.0
680.0 47193.0
1442.0 47193.0
26.0 47194.0
607.0 47194.0
286.0 47195.0
558.0 47195.0
763.0 47195.0
224.0 47196.0
334.0 47196.0
487.0 47196.0
599.0 47196.0
14.0 47197.0
26.0 47197.0
434.0 47197.0
477.0 47197.0
231.0 47198.0
217.0 47199.0
206.0 47200.0
258.0 47200.0
318.0 47200.0
