26.0 47406.0
680.0 47409.0
763.0 47409.0
1442.0 47409.0
26.0 47410.0
26.0 47413.0
680.0 47415.0
763.0 47415.0
1442.0 47415.0
26.0 47417.0
26.0 47420.0
680.0 47421.0
763.0 47421.0
1442.0 47421.0
26.0 47424.0
26.0 47427.0
680.0 47427.0
763.0 47427.0
1442.0 47427.0
26.0 47430.0
26.0 47433.0
347.0 47433.0
599.0 47433.0
680.0 47433.0
763.0 47433.0
1442.0 47433.0
26.0 47436.0
26.0 47439.0
680.0 47439.0
763.0 47439.0
1442.0 47439.0
26.0 47442.0
112.0 47443.0
328.0 47443.0
450.0 47443.0
14.0 47444.0
217.0 47444.0
296.0 47444.0
605.0 47444.0
632.0 47444.0
1442.0 47444.0
26.0 47445.0
62.0 47445.0
87.0 47445.0
129.0 47445.0
159.0 47445.0
166.0 47445.0
167.0 47445.0
185.0 47445.0
224.0 47445.0
227.0 47445.0
232.0 47445.0
241.0 47445.0
258.0 47445.0
259.0 47445.0
303.0 47445.0
306.0 47445.0
334.0 47445.0
434.0 47445.0
435.0 47445.0
487.0 47445.0
680.0 47445.0
763.0 47445.0
866.0 47445.0
157.0 47446.0
286.0 47446.0
366.0 47446.0
477.0 47446.0
718.0 47446.0
734.0 47446.0
744.0 47446.0
165.0 47447.0
382.0 47447.0
558.0 47447.0
607.0 47447.0
623.0 47447.0
696.0 47447.0
745.0 47447.0
26.0 47448.0
428.0 47448.0
580.0 47448.0
709.0 47448.0
708.0 47449.0
1442.0 47449.0
26.0 47451.0
347.0 47451.0
599.0 47451.0
680.0 47451.0
763.0 47451.0
26.0 47454.0
1442.0 47454.0
26.0 47457.0
680.0 47457.0
763.0 47457.0
1442.0 47459.0
26.0 47460.0
26.0 47463.0
680.0 47463.0
763.0 47463.0
1442.0 47464.0
26.0 47466.0
347.0 47468.0
26.0 47469.0
450.0 47469.0
599.0 47469.0
680.0 47469.0
763.0 47469.0
1442.0 47469.0
112.0 47470.0
605.0 47470.0
734.0 47470.0
866.0 47470.0
224.0 47471.0
232.0 47471.0
296.0 47471.0
303.0 47471.0
328.0 47471.0
632.0 47471.0
14.0 47472.0
26.0 47472.0
129.0 47472.0
217.0 47472.0
241.0 47472.0
487.0 47472.0
696.0 47472.0
744.0 47472.0
185.0 47473.0
435.0 47473.0
718.0 47473.0
62.0 47474.0
159.0 47474.0
166.0 47474.0
167.0 47474.0
258.0 47474.0
259.0 47474.0
286.0 47474.0
306.0 47474.0
366.0 47474.0
1442.0 47474.0
26.0 47475.0
87.0 47475.0
157.0 47475.0
227.0 47475.0
334.0 47475.0
434.0 47475.0
477.0 47475.0
558.0 47475.0
680.0 47475.0
763.0 47475.0
607.0 47476.0
623.0 47476.0
709.0 47476.0
745.0 47476.0
382.0 47477.0
26.0 47478.0
428.0 47478.0
580.0 47478.0
1442.0 47479.0
165.0 47480.0
26.0 47481.0
680.0 47481.0
708.0 47481.0
763.0 47481.0
26.0 47484.0
1442.0 47484.0
347.0 47485.0
735.0 47486.0
949.0 47486.0
26.0 47487.0
599.0 47487.0
680.0 47487.0
763.0 47487.0
1114.0 47487.0
1105.0 47488.0
1226.0 47488.0
1442.0 47489.0
26.0 47490.0
26.0 47493.0
680.0 47493.0
734.0 47493.0
763.0 47493.0
1222.0 47494.0
1442.0 47494.0
605.0 47495.0
725.0 47495.0
857.0 47495.0
866.0 47495.0
880.0 47495.0
26.0 47496.0
303.0 47496.0
450.0 47496.0
632.0 47496.0
696.0 47496.0
112.0 47497.0
232.0 47497.0
296.0 47497.0
744.0 47497.0
224.0 47498.0
1012.0 47498.0
26.0 47499.0
129.0 47499.0
217.0 47499.0
241.0 47499.0
328.0 47499.0
487.0 47499.0
680.0 47499.0
718.0 47499.0
763.0 47499.0
1442.0 47499.0
14.0 47500.0
185.0 47500.0
959.0 47500.0
435.0 47501.0
26.0 47502.0
62.0 47502.0
258.0 47502.0
347.0 47502.0
558.0 47502.0
159.0 47503.0
167.0 47503.0
286.0 47503.0
306.0 47503.0
334.0 47503.0
366.0 47503.0
709.0 47503.0
745.0 47503.0
87.0 47504.0
157.0 47504.0
166.0 47504.0
259.0 47504.0
434.0 47504.0
623.0 47504.0
1442.0 47504.0
26.0 47505.0
227.0 47505.0
477.0 47505.0
599.0 47505.0
607.0 47505.0
680.0 47505.0
763.0 47505.0
85.0 47507.0
382.0 47507.0
1337.0 47507.0
26.0 47508.0
318.0 47508.0
428.0 47508.0
580.0 47508.0
206.0 47509.0
231.0 47509.0
736.0 47509.0
973.0 47509.0
1442.0 47509.0
860.0 47510.0
26.0 47511.0
680.0 47511.0
763.0 47511.0
991.0 47511.0
708.0 47512.0
733.0 47512.0
165.0 47513.0
595.0 47513.0
1251.0 47513.0
26.0 47514.0
1442.0 47514.0
714.0 47515.0
1156.0 47515.0
734.0 47516.0
1172.0 47516.0
680.0 47517.0
738.0 47517.0
763.0 47517.0
1254.0 47517.0
26.0 47518.0
347.0 47518.0
1118.0 47518.0
866.0 47519.0
1442.0 47519.0
303.0 47520.0
605.0 47520.0
296.0 47521.0
696.0 47521.0
744.0 47521.0
852.0 47521.0
941.0 47521.0
1068.0 47521.0
1075.0 47521.0
26.0 47522.0
450.0 47523.0
599.0 47523.0
680.0 47523.0
763.0 47523.0
1340.0 47523.0
232.0 47524.0
487.0 47524.0
632.0 47524.0
1442.0 47524.0
224.0 47525.0
718.0 47525.0
1404.0 47525.0
26.0 47526.0
112.0 47527.0
1038.0 47527.0
1165.0 47527.0
1442.0 47528.0
26.0 47529.0
241.0 47529.0
680.0 47529.0
763.0 47529.0
129.0 47530.0
14.0 47531.0
185.0 47532.0
217.0 47532.0
1442.0 47532.0
26.0 47533.0
328.0 47533.0
366.0 47533.0
709.0 47533.0
1087.0 47533.0
435.0 47534.0
1204.0 47534.0
62.0 47535.0
159.0 47535.0
286.0 47535.0
558.0 47535.0
680.0 47535.0
745.0 47535.0
763.0 47535.0
1253.0 47535.0
1345.0 47535.0
1423.0 47535.0
258.0 47536.0
1390.0 47536.0
1418.0 47536.0
1442.0 47536.0
26.0 47537.0
334.0 47537.0
477.0 47537.0
623.0 47537.0
1016.0 47537.0
1114.0 47537.0
607.0 47538.0
842.0 47538.0
167.0 47539.0
259.0 47539.0
306.0 47539.0
347.0 47539.0
949.0 47539.0
1088.0 47539.0
26.0 47540.0
157.0 47540.0
166.0 47540.0
1001.0 47540.0
1105.0 47540.0
1226.0 47540.0
1442.0 47540.0
680.0 47541.0
763.0 47541.0
866.0 47541.0
87.0 47542.0
434.0 47542.0
725.0 47542.0
734.0 47542.0
735.0 47542.0
857.0 47542.0
880.0 47542.0
950.0 47542.0
1417.0 47542.0
227.0 47543.0
599.0 47543.0
1135.0 47543.0
26.0 47544.0
1222.0 47544.0
1442.0 47544.0
382.0 47546.0
580.0 47546.0
696.0 47546.0
680.0 47547.0
763.0 47547.0
26.0 47548.0
744.0 47548.0
1012.0 47548.0
1442.0 47548.0
428.0 47549.0
296.0 47551.0
26.0 47552.0
1442.0 47552.0
303.0 47553.0
605.0 47553.0
680.0 47553.0
763.0 47553.0
959.0 47553.0
973.0 47553.0
1337.0 47554.0
708.0 47555.0
26.0 47556.0
232.0 47556.0
991.0 47556.0
1442.0 47556.0
632.0 47558.0
347.0 47559.0
680.0 47559.0
714.0 47559.0
763.0 47559.0
1251.0 47559.0
26.0 47560.0
1442.0 47560.0
1172.0 47561.0
1254.0 47561.0
224.0 47562.0
450.0 47562.0
866.0 47562.0
1156.0 47562.0
718.0 47563.0
26.0 47564.0
599.0 47564.0
763.0 47564.0
1118.0 47564.0
1442.0 47564.0
165.0 47565.0
241.0 47565.0
487.0 47565.0
680.0 47565.0
112.0 47566.0
738.0 47566.0
1068.0 47566.0
734.0 47567.0
1075.0 47567.0
1340.0 47567.0
26.0 47568.0
1442.0 47568.0
763.0 47569.0
1165.0 47569.0
366.0 47570.0
852.0 47570.0
1038.0 47570.0
1404.0 47570.0
14.0 47571.0
129.0 47571.0
217.0 47571.0
680.0 47571.0
26.0 47572.0
185.0 47572.0
328.0 47572.0
745.0 47572.0
1442.0 47572.0
558.0 47574.0
623.0 47574.0
709.0 47574.0
763.0 47574.0
941.0 47574.0
258.0 47575.0
696.0 47575.0
744.0 47575.0
26.0 47576.0
286.0 47576.0
334.0 47576.0
949.0 47576.0
1390.0 47576.0
1442.0 47576.0
435.0 47577.0
680.0 47577.0
1105.0 47577.0
1114.0 47577.0
1226.0 47577.0
62.0 47578.0
159.0 47578.0
259.0 47578.0
477.0 47578.0
725.0 47578.0
735.0 47578.0
857.0 47578.0
860.0 47578.0
880.0 47578.0
347.0 47579.0
763.0 47579.0
1253.0 47579.0
26.0 47580.0
1016.0 47580.0
1087.0 47580.0
1442.0 47580.0
607.0 47581.0
866.0 47581.0
306.0 47582.0
843.0 47582.0
1204.0 47582.0
157.0 47583.0
166.0 47583.0
680.0 47583.0
736.0 47583.0
1001.0 47583.0
1345.0 47583.0
1423.0 47583.0
26.0 47584.0
227.0 47584.0
591.0 47584.0
599.0 47584.0
763.0 47584.0
1012.0 47584.0
1222.0 47584.0
1418.0 47584.0
1442.0 47584.0
167.0 47585.0
605.0 47585.0
87.0 47586.0
296.0 47586.0
1088.0 47586.0
232.0 47587.0
842.0 47587.0
26.0 47588.0
382.0 47588.0
434.0 47588.0
1442.0 47588.0
680.0 47589.0
763.0 47589.0
861.0 47589.0
303.0 47590.0
632.0 47590.0
26.0 47592.0
734.0 47592.0
1251.0 47592.0
1442.0 47592.0
950.0 47593.0
973.0 47593.0
224.0 47594.0
580.0 47594.0
763.0 47594.0
680.0 47595.0
991.0 47595.0
26.0 47596.0
241.0 47596.0
1135.0 47596.0
1337.0 47596.0
1417.0 47596.0
1442.0 47596.0
347.0 47597.0
428.0 47597.0
1156.0 47597.0
1172.0 47597.0
112.0 47598.0
708.0 47598.0
763.0 47599.0
26.0 47600.0
456.0 47600.0
1442.0 47600.0
450.0 47601.0
487.0 47601.0
680.0 47601.0
714.0 47601.0
866.0 47601.0
959.0 47601.0
696.0 47602.0
744.0 47602.0
718.0 47603.0
1254.0 47603.0
26.0 47604.0
366.0 47604.0
599.0 47604.0
763.0 47604.0
1442.0 47604.0
129.0 47605.0
1165.0 47605.0
745.0 47606.0
1038.0 47606.0
1404.0 47606.0
217.0 47607.0
680.0 47607.0
1068.0 47607.0
26.0 47608.0
623.0 47608.0
1118.0 47608.0
1442.0 47608.0
763.0 47609.0
258.0 47610.0
328.0 47610.0
725.0 47610.0
735.0 47610.0
738.0 47610.0
880.0 47610.0
334.0 47611.0
1075.0 47611.0
1390.0 47611.0
26.0 47612.0
852.0 47612.0
1105.0 47612.0
1226.0 47612.0
1340.0 47612.0
1442.0 47612.0
185.0 47613.0
857.0 47613.0
949.0 47613.0
14.0 47614.0
259.0 47614.0
763.0 47614.0
605.0 47615.0
680.0 47615.0
26.0 47616.0
347.0 47616.0
1442.0 47616.0
232.0 47617.0
1016.0 47617.0
558.0 47618.0
709.0 47618.0
734.0 47618.0
1012.0 47618.0
763.0 47619.0
1253.0 47619.0
26.0 47620.0
227.0 47620.0
1001.0 47620.0
1442.0 47620.0
632.0 47621.0
866.0 47621.0
1114.0 47622.0
680.0 47623.0
26.0 47624.0
599.0 47624.0
763.0 47624.0
1442.0 47624.0
224.0 47625.0
241.0 47626.0
296.0 47626.0
382.0 47626.0
1251.0 47626.0
26.0 47628.0
435.0 47628.0
1442.0 47628.0
763.0 47629.0
62.0 47630.0
286.0 47630.0
696.0 47630.0
744.0 47630.0
159.0 47631.0
680.0 47631.0
26.0 47632.0
1156.0 47632.0
1222.0 47632.0
1442.0 47632.0
1172.0 47633.0
112.0 47634.0
763.0 47634.0
487.0 47635.0
26.0 47636.0
1442.0 47636.0
306.0 47637.0
347.0 47637.0
303.0 47638.0
366.0 47638.0
708.0 47638.0
129.0 47639.0
680.0 47639.0
763.0 47639.0
26.0 47640.0
217.0 47640.0
1442.0 47640.0
745.0 47641.0
1404.0 47641.0
1038.0 47642.0
1165.0 47642.0
334.0 47643.0
623.0 47643.0
725.0 47643.0
735.0 47643.0
880.0 47643.0
26.0 47644.0
763.0 47644.0
866.0 47644.0
1442.0 47644.0
258.0 47645.0
328.0 47645.0
607.0 47645.0
157.0 47646.0
166.0 47646.0
477.0 47646.0
599.0 47646.0
605.0 47646.0
734.0 47646.0
680.0 47647.0
1390.0 47647.0
26.0 47648.0
1442.0 47648.0
232.0 47649.0
259.0 47649.0
763.0 47649.0
26.0 47652.0
632.0 47652.0
973.0 47652.0
1012.0 47652.0
1442.0 47652.0
167.0 47653.0
450.0 47653.0
991.0 47653.0
718.0 47654.0
763.0 47654.0
1016.0 47654.0
87.0 47655.0
680.0 47655.0
1253.0 47655.0
1345.0 47655.0
1423.0 47655.0
26.0 47656.0
1337.0 47656.0
1442.0 47656.0
241.0 47657.0
224.0 47658.0
696.0 47658.0
744.0 47658.0
1001.0 47658.0
227.0 47659.0
347.0 47659.0
763.0 47659.0
1251.0 47660.0
1442.0 47660.0
26.0 47661.0
1204.0 47661.0
941.0 47662.0
680.0 47663.0
714.0 47663.0
857.0 47663.0
763.0 47664.0
1418.0 47664.0
1442.0 47664.0
26.0 47665.0
866.0 47665.0
1156.0 47665.0
382.0 47666.0
1105.0 47668.0
1442.0 47668.0
763.0 47669.0
1172.0 47669.0
599.0 47670.0
26.0 47671.0
680.0 47671.0
1254.0 47671.0
1442.0 47672.0
487.0 47673.0
734.0 47674.0
763.0 47674.0
112.0 47675.0
366.0 47675.0
880.0 47675.0
26.0 47676.0
725.0 47676.0
949.0 47676.0
1226.0 47676.0
1442.0 47676.0
1404.0 47677.0
735.0 47678.0
763.0 47678.0
1038.0 47678.0
1165.0 47678.0
680.0 47679.0
1114.0 47679.0
217.0 47680.0
1442.0 47680.0
26.0 47681.0
745.0 47682.0
763.0 47682.0
623.0 47683.0
1390.0 47683.0
129.0 47684.0
334.0 47684.0
347.0 47684.0
1442.0 47684.0
232.0 47685.0
1012.0 47685.0
1088.0 47685.0
605.0 47686.0
763.0 47686.0
860.0 47686.0
866.0 47686.0
26.0 47687.0
258.0 47687.0
632.0 47687.0
680.0 47687.0
738.0 47687.0
708.0 47688.0
1442.0 47688.0
1016.0 47689.0
328.0 47690.0
744.0 47690.0
763.0 47690.0
1001.0 47690.0
696.0 47691.0
1253.0 47691.0
259.0 47692.0
852.0 47692.0
1251.0 47692.0
1442.0 47692.0
26.0 47693.0
241.0 47693.0
950.0 47693.0
1156.0 47693.0
736.0 47694.0
763.0 47694.0
959.0 47694.0
1068.0 47694.0
1075.0 47694.0
599.0 47695.0
680.0 47695.0
1340.0 47695.0
224.0 47696.0
1222.0 47696.0
1442.0 47696.0
763.0 47698.0
1172.0 47698.0
26.0 47699.0
1087.0 47699.0
591.0 47700.0
843.0 47700.0
1118.0 47700.0
1442.0 47700.0
880.0 47701.0
725.0 47702.0
763.0 47702.0
680.0 47703.0
861.0 47703.0
1442.0 47704.0
26.0 47705.0
227.0 47705.0
866.0 47705.0
735.0 47706.0
763.0 47706.0
1038.0 47706.0
1404.0 47706.0
991.0 47708.0
1442.0 47708.0
347.0 47709.0
456.0 47709.0
1165.0 47709.0
763.0 47710.0
973.0 47710.0
26.0 47711.0
680.0 47711.0
734.0 47711.0
1390.0 47711.0
382.0 47712.0
1012.0 47713.0
1442.0 47713.0
763.0 47714.0
366.0 47715.0
487.0 47716.0
26.0 47717.0
1105.0 47717.0
1442.0 47717.0
599.0 47718.0
763.0 47718.0
680.0 47719.0
1001.0 47719.0
112.0 47720.0
232.0 47720.0
1016.0 47720.0
1251.0 47720.0
217.0 47721.0
334.0 47722.0
763.0 47722.0
1156.0 47722.0
26.0 47723.0
605.0 47723.0
1253.0 47723.0
1442.0 47723.0
623.0 47724.0
745.0 47724.0
632.0 47725.0
866.0 47725.0
680.0 47727.0
763.0 47727.0
328.0 47728.0
1442.0 47728.0
26.0 47729.0
129.0 47729.0
258.0 47729.0
880.0 47729.0
763.0 47731.0
1172.0 47731.0
1442.0 47733.0
241.0 47734.0
347.0 47734.0
26.0 47735.0
680.0 47735.0
725.0 47735.0
224.0 47737.0
763.0 47737.0
1442.0 47738.0
26.0 47741.0
735.0 47741.0
763.0 47742.0
680.0 47743.0
1442.0 47743.0
26.0 47747.0
599.0 47747.0
763.0 47747.0
1442.0 47748.0
866.0 47749.0
1404.0 47749.0
1038.0 47750.0
680.0 47751.0
763.0 47752.0
26.0 47753.0
1442.0 47753.0
1165.0 47756.0
1390.0 47756.0
763.0 47757.0
1442.0 47758.0
680.0 47759.0
26.0 47761.0
763.0 47762.0
1012.0 47762.0
1442.0 47763.0
347.0 47766.0
680.0 47767.0
763.0 47767.0
1442.0 47768.0
26.0 47769.0
763.0 47772.0
1001.0 47772.0
1156.0 47772.0
1251.0 47773.0
1442.0 47773.0
680.0 47775.0
866.0 47775.0
26.0 47777.0
763.0 47777.0
1442.0 47778.0
880.0 47779.0
1016.0 47779.0
599.0 47782.0
763.0 47782.0
680.0 47783.0
1172.0 47783.0
1253.0 47783.0
1442.0 47783.0
26.0 47785.0
763.0 47787.0
1442.0 47788.0
680.0 47789.0
725.0 47790.0
735.0 47792.0
763.0 47792.0
26.0 47793.0
1442.0 47793.0
866.0 47798.0
