763.0 4206.0
1442.0 4206.0
680.0 4209.0
763.0 4211.0
1442.0 4211.0
1442.0 4214.0
680.0 4215.0
763.0 4216.0
1442.0 4219.0
763.0 4220.0
680.0 4221.0
1442.0 4222.0
763.0 4224.0
1442.0 4227.0
680.0 4228.0
763.0 4228.0
1442.0 4230.0
763.0 4232.0
866.0 4233.0
1442.0 4235.0
680.0 4236.0
763.0 4236.0
1442.0 4238.0
763.0 4240.0
735.0 4242.0
1012.0 4242.0
1156.0 4242.0
1172.0 4242.0
1251.0 4242.0
1253.0 4242.0
1390.0 4242.0
1001.0 4243.0
1038.0 4243.0
1165.0 4243.0
1442.0 4243.0
680.0 4244.0
725.0 4244.0
763.0 4244.0
1404.0 4244.0
880.0 4245.0
1016.0 4246.0
1442.0 4246.0
763.0 4248.0
1442.0 4251.0
680.0 4252.0
763.0 4252.0
866.0 4252.0
1442.0 4254.0
763.0 4256.0
1442.0 4259.0
680.0 4260.0
763.0 4260.0
1442.0 4262.0
763.0 4264.0
1105.0 4266.0
1442.0 4267.0
680.0 4268.0
763.0 4268.0
735.0 4269.0
1172.0 4269.0
1251.0 4270.0
1390.0 4270.0
1442.0 4270.0
1012.0 4271.0
1038.0 4271.0
1156.0 4271.0
763.0 4272.0
866.0 4272.0
1001.0 4272.0
725.0 4273.0
860.0 4273.0
1253.0 4273.0
880.0 4274.0
1404.0 4274.0
973.0 4275.0
1165.0 4275.0
1226.0 4275.0
1442.0 4275.0
680.0 4276.0
736.0 4276.0
763.0 4276.0
1016.0 4276.0
714.0 4277.0
857.0 4277.0
1442.0 4278.0
763.0 4280.0
591.0 4281.0
949.0 4281.0
1114.0 4281.0
456.0 4282.0
680.0 4282.0
852.0 4282.0
991.0 4282.0
1254.0 4282.0
1337.0 4282.0
1340.0 4282.0
1222.0 4283.0
1442.0 4283.0
347.0 4284.0
763.0 4284.0
1068.0 4285.0
1088.0 4285.0
843.0 4286.0
1442.0 4286.0
1075.0 4287.0
599.0 4288.0
680.0 4288.0
763.0 4288.0
1423.0 4288.0
861.0 4289.0
1204.0 4289.0
1345.0 4289.0
1418.0 4289.0
866.0 4290.0
1118.0 4290.0
1135.0 4290.0
950.0 4291.0
1087.0 4291.0
1417.0 4291.0
1442.0 4291.0
763.0 4292.0
941.0 4292.0
959.0 4293.0
680.0 4294.0
738.0 4294.0
841.0 4294.0
1442.0 4294.0
735.0 4296.0
763.0 4296.0
1172.0 4296.0
1251.0 4296.0
1038.0 4297.0
1390.0 4297.0
842.0 4298.0
1012.0 4298.0
725.0 4299.0
1156.0 4299.0
1442.0 4299.0
680.0 4300.0
763.0 4300.0
1001.0 4300.0
880.0 4302.0
1442.0 4302.0
1404.0 4303.0
763.0 4304.0
1105.0 4304.0
1165.0 4304.0
1253.0 4305.0
680.0 4306.0
1442.0 4306.0
866.0 4307.0
1016.0 4307.0
763.0 4308.0
1442.0 4310.0
680.0 4312.0
763.0 4312.0
860.0 4312.0
1442.0 4314.0
857.0 4315.0
763.0 4316.0
973.0 4316.0
1226.0 4316.0
680.0 4318.0
714.0 4318.0
1442.0 4318.0
736.0 4319.0
763.0 4320.0
591.0 4322.0
735.0 4322.0
949.0 4322.0
1442.0 4322.0
852.0 4323.0
991.0 4323.0
1114.0 4323.0
1251.0 4323.0
680.0 4324.0
763.0 4324.0
1038.0 4324.0
1172.0 4324.0
1390.0 4324.0
866.0 4325.0
1222.0 4325.0
1337.0 4325.0
1340.0 4325.0
456.0 4326.0
725.0 4326.0
1012.0 4326.0
1254.0 4326.0
1442.0 4326.0
1156.0 4327.0
763.0 4328.0
1001.0 4328.0
880.0 4329.0
1068.0 4329.0
347.0 4330.0
680.0 4330.0
1442.0 4330.0
1088.0 4331.0
1404.0 4331.0
1423.0 4331.0
763.0 4332.0
843.0 4334.0
1075.0 4334.0
1442.0 4334.0
1165.0 4335.0
599.0 4336.0
680.0 4336.0
763.0 4336.0
1204.0 4336.0
1345.0 4336.0
1418.0 4336.0
1253.0 4337.0
1016.0 4338.0
1105.0 4338.0
1118.0 4338.0
1442.0 4338.0
950.0 4339.0
1087.0 4339.0
763.0 4340.0
941.0 4340.0
861.0 4341.0
680.0 4342.0
866.0 4342.0
1135.0 4342.0
1417.0 4342.0
1442.0 4342.0
738.0 4343.0
959.0 4343.0
763.0 4344.0
841.0 4346.0
1442.0 4346.0
680.0 4348.0
735.0 4348.0
763.0 4348.0
860.0 4348.0
1251.0 4350.0
1442.0 4350.0
725.0 4351.0
842.0 4351.0
857.0 4351.0
1038.0 4351.0
1390.0 4351.0
763.0 4352.0
1172.0 4352.0
680.0 4354.0
973.0 4354.0
1012.0 4354.0
1442.0 4354.0
1156.0 4355.0
763.0 4356.0
880.0 4356.0
1001.0 4356.0
714.0 4357.0
1226.0 4358.0
1442.0 4358.0
1404.0 4359.0
680.0 4360.0
736.0 4360.0
763.0 4360.0
866.0 4360.0
949.0 4360.0
991.0 4362.0
1442.0 4362.0
591.0 4364.0
763.0 4364.0
852.0 4364.0
1165.0 4364.0
1114.0 4365.0
680.0 4366.0
1442.0 4366.0
763.0 4367.0
1222.0 4367.0
1016.0 4369.0
1253.0 4369.0
1337.0 4369.0
1340.0 4369.0
1442.0 4370.0
456.0 4371.0
763.0 4371.0
347.0 4372.0
680.0 4372.0
1254.0 4372.0
1105.0 4374.0
1442.0 4374.0
735.0 4375.0
763.0 4375.0
680.0 4376.0
1068.0 4376.0
1251.0 4376.0
725.0 4377.0
866.0 4377.0
1038.0 4377.0
1390.0 4377.0
1442.0 4377.0
763.0 4378.0
843.0 4378.0
1423.0 4378.0
599.0 4379.0
1088.0 4379.0
1172.0 4379.0
1345.0 4379.0
1012.0 4380.0
1075.0 4380.0
680.0 4381.0
1118.0 4381.0
1156.0 4381.0
1204.0 4381.0
1418.0 4381.0
1442.0 4381.0
763.0 4382.0
860.0 4382.0
861.0 4382.0
880.0 4382.0
950.0 4382.0
1001.0 4382.0
1087.0 4382.0
941.0 4383.0
738.0 4384.0
1135.0 4384.0
841.0 4385.0
857.0 4385.0
1404.0 4385.0
1417.0 4385.0
1442.0 4385.0
680.0 4386.0
763.0 4386.0
959.0 4386.0
973.0 4386.0
1442.0 4388.0
714.0 4390.0
763.0 4390.0
1165.0 4390.0
680.0 4391.0
949.0 4391.0
1226.0 4391.0
866.0 4392.0
991.0 4392.0
1442.0 4392.0
736.0 4393.0
763.0 4393.0
842.0 4393.0
852.0 4395.0
591.0 4396.0
680.0 4396.0
1016.0 4396.0
1114.0 4396.0
1253.0 4396.0
1442.0 4396.0
763.0 4397.0
735.0 4398.0
725.0 4399.0
1222.0 4399.0
763.0 4400.0
1038.0 4400.0
1251.0 4400.0
1390.0 4400.0
1442.0 4400.0
680.0 4401.0
1105.0 4401.0
1340.0 4401.0
1172.0 4402.0
1337.0 4402.0
456.0 4403.0
1442.0 4403.0
347.0 4404.0
763.0 4404.0
1012.0 4404.0
1156.0 4405.0
1254.0 4405.0
680.0 4406.0
880.0 4406.0
763.0 4407.0
866.0 4407.0
1001.0 4407.0
1442.0 4407.0
599.0 4409.0
860.0 4409.0
1068.0 4409.0
1404.0 4409.0
680.0 4410.0
763.0 4410.0
843.0 4410.0
1423.0 4410.0
1442.0 4410.0
857.0 4412.0
1088.0 4412.0
1345.0 4412.0
763.0 4413.0
1075.0 4413.0
680.0 4414.0
861.0 4414.0
973.0 4414.0
1087.0 4414.0
1165.0 4414.0
1418.0 4414.0
1442.0 4414.0
950.0 4415.0
1118.0 4415.0
1204.0 4415.0
738.0 4416.0
763.0 4416.0
941.0 4416.0
714.0 4417.0
841.0 4417.0
1135.0 4417.0
1442.0 4417.0
680.0 4418.0
949.0 4418.0
1226.0 4418.0
1417.0 4418.0
735.0 4419.0
736.0 4419.0
763.0 4419.0
959.0 4419.0
991.0 4419.0
1253.0 4419.0
591.0 4420.0
725.0 4420.0
1016.0 4420.0
1038.0 4420.0
1442.0 4420.0
866.0 4421.0
1251.0 4421.0
1390.0 4421.0
680.0 4422.0
763.0 4422.0
852.0 4422.0
1172.0 4422.0
1114.0 4423.0
1442.0 4423.0
1012.0 4424.0
1105.0 4424.0
763.0 4425.0
842.0 4425.0
1156.0 4425.0
1222.0 4425.0
680.0 4426.0
880.0 4426.0
1340.0 4426.0
1442.0 4426.0
456.0 4427.0
1001.0 4427.0
1337.0 4427.0
347.0 4428.0
763.0 4428.0
860.0 4429.0
1254.0 4429.0
1404.0 4429.0
1442.0 4429.0
680.0 4430.0
599.0 4431.0
763.0 4431.0
857.0 4432.0
1442.0 4432.0
843.0 4433.0
866.0 4433.0
1068.0 4433.0
1165.0 4433.0
1423.0 4433.0
680.0 4434.0
763.0 4434.0
973.0 4435.0
1088.0 4435.0
1345.0 4435.0
1442.0 4435.0
735.0 4436.0
725.0 4437.0
763.0 4437.0
861.0 4437.0
1038.0 4437.0
1075.0 4437.0
1087.0 4437.0
1418.0 4437.0
680.0 4438.0
714.0 4438.0
950.0 4438.0
1204.0 4438.0
1251.0 4438.0
1253.0 4438.0
1390.0 4438.0
1442.0 4438.0
591.0 4439.0
738.0 4439.0
949.0 4439.0
991.0 4439.0
1016.0 4439.0
1118.0 4439.0
1226.0 4439.0
736.0 4440.0
763.0 4440.0
851.0 4440.0
1172.0 4440.0
841.0 4441.0
941.0 4441.0
1012.0 4441.0
1135.0 4441.0
1442.0 4441.0
680.0 4442.0
852.0 4442.0
1156.0 4442.0
1417.0 4442.0
763.0 4443.0
880.0 4443.0
959.0 4443.0
1105.0 4443.0
625.0 4444.0
866.0 4444.0
1114.0 4444.0
1442.0 4444.0
1001.0 4445.0
1222.0 4445.0
680.0 4446.0
763.0 4446.0
1404.0 4446.0
894.0 4447.0
1340.0 4447.0
1442.0 4447.0
456.0 4448.0
860.0 4448.0
1337.0 4448.0
763.0 4449.0
842.0 4449.0
1014.0 4449.0
1355.0 4449.0
347.0 4450.0
680.0 4450.0
857.0 4450.0
1254.0 4450.0
1442.0 4450.0
1165.0 4451.0
599.0 4452.0
763.0 4452.0
725.0 4453.0
735.0 4453.0
1442.0 4453.0
680.0 4454.0
1038.0 4454.0
1068.0 4454.0
1423.0 4454.0
763.0 4455.0
843.0 4455.0
870.0 4455.0
973.0 4455.0
1251.0 4455.0
1390.0 4455.0
866.0 4456.0
1442.0 4456.0
1088.0 4457.0
1172.0 4457.0
1253.0 4457.0
1345.0 4457.0
591.0 4458.0
680.0 4458.0
714.0 4458.0
763.0 4458.0
1012.0 4458.0
1016.0 4458.0
949.0 4459.0
991.0 4459.0
1075.0 4459.0
1087.0 4459.0
1226.0 4459.0
1418.0 4459.0
1442.0 4459.0
861.0 4460.0
880.0 4460.0
985.0 4460.0
1018.0 4460.0
1156.0 4460.0
1204.0 4460.0
612.0 4461.0
738.0 4461.0
763.0 4461.0
950.0 4461.0
1105.0 4461.0
680.0 4462.0
736.0 4462.0
852.0 4462.0
1001.0 4462.0
1118.0 4462.0
1442.0 4462.0
726.0 4463.0
1134.0 4463.0
763.0 4464.0
951.0 4464.0
1135.0 4464.0
1404.0 4464.0
841.0 4465.0
889.0 4465.0
941.0 4465.0
1114.0 4465.0
1115.0 4465.0
1417.0 4465.0
1442.0 4465.0
680.0 4466.0
1222.0 4466.0
466.0 4467.0
763.0 4467.0
860.0 4467.0
866.0 4467.0
959.0 4467.0
1225.0 4468.0
1340.0 4468.0
1442.0 4468.0
456.0 4469.0
725.0 4469.0
735.0 4469.0
857.0 4469.0
881.0 4469.0
1257.0 4469.0
1337.0 4469.0
680.0 4470.0
763.0 4470.0
1165.0 4470.0
1262.0 4470.0
347.0 4471.0
719.0 4471.0
734.0 4471.0
989.0 4471.0
1038.0 4471.0
1254.0 4471.0
1442.0 4471.0
1446.0 4471.0
754.0 4472.0
1133.0 4472.0
1251.0 4472.0
1390.0 4472.0
599.0 4473.0
763.0 4473.0
842.0 4473.0
850.0 4473.0
680.0 4474.0
973.0 4474.0
1172.0 4474.0
1243.0 4474.0
1442.0 4474.0
1012.0 4475.0
1068.0 4475.0
1253.0 4475.0
1423.0 4475.0
241.0 4476.0
763.0 4476.0
1148.0 4476.0
1305.0 4476.0
478.0 4477.0
714.0 4477.0
843.0 4477.0
863.0 4477.0
864.0 4477.0
880.0 4477.0
886.0 4477.0
994.0 4477.0
1016.0 4477.0
1156.0 4477.0
1442.0 4477.0
591.0 4478.0
680.0 4478.0
949.0 4478.0
1226.0 4478.0
1436.0 4478.0
334.0 4479.0
605.0 4479.0
763.0 4479.0
866.0 4479.0
1001.0 4479.0
1088.0 4479.0
1105.0 4479.0
1345.0 4479.0
1433.0 4479.0
991.0 4480.0
1174.0 4480.0
1418.0 4480.0
1442.0 4480.0
632.0 4481.0
861.0 4481.0
893.0 4481.0
1022.0 4481.0
1031.0 4481.0
1075.0 4481.0
1087.0 4481.0
680.0 4482.0
763.0 4482.0
852.0 4482.0
965.0 4482.0
992.0 4482.0
1204.0 4482.0
1404.0 4482.0
601.0 4483.0
736.0 4483.0
738.0 4483.0
744.0 4483.0
819.0 4483.0
950.0 4483.0
1118.0 4483.0
1442.0 4483.0
475.0 4485.0
613.0 4485.0
725.0 4485.0
735.0 4485.0
763.0 4485.0
1236.0 4485.0
1300.0 4485.0
1419.0 4485.0
680.0 4486.0
860.0 4486.0
1135.0 4486.0
1222.0 4486.0
1442.0 4486.0
762.0 4487.0
857.0 4487.0
1038.0 4487.0
1114.0 4487.0
589.0 4488.0
763.0 4488.0
851.0 4488.0
1241.0 4488.0
1251.0 4488.0
1390.0 4488.0
1415.0 4488.0
1447.0 4488.0
841.0 4489.0
941.0 4489.0
1165.0 4489.0
1340.0 4489.0
1417.0 4489.0
1442.0 4489.0
680.0 4490.0
866.0 4490.0
959.0 4490.0
1172.0 4490.0
1337.0 4490.0
1434.0 4490.0
456.0 4491.0
763.0 4491.0
1012.0 4491.0
347.0 4492.0
1263.0 4492.0
1442.0 4492.0
599.0 4493.0
1254.0 4493.0
449.0 4494.0
680.0 4494.0
763.0 4494.0
973.0 4494.0
1156.0 4494.0
1253.0 4494.0
880.0 4495.0
1016.0 4495.0
1068.0 4495.0
1442.0 4495.0
842.0 4496.0
1001.0 4496.0
1105.0 4496.0
1423.0 4496.0
232.0 4497.0
714.0 4497.0
763.0 4497.0
1226.0 4497.0
591.0 4498.0
680.0 4498.0
843.0 4498.0
949.0 4498.0
1442.0 4498.0
763.0 4500.0
883.0 4500.0
991.0 4500.0
1404.0 4500.0
725.0 4501.0
735.0 4501.0
1088.0 4501.0
1442.0 4501.0
680.0 4502.0
852.0 4502.0
866.0 4502.0
1418.0 4502.0
1445.0 4502.0
736.0 4503.0
763.0 4503.0
1075.0 4503.0
1087.0 4503.0
1204.0 4503.0
1345.0 4503.0
1355.0 4503.0
729.0 4504.0
738.0 4504.0
860.0 4504.0
861.0 4504.0
950.0 4504.0
1038.0 4504.0
1251.0 4504.0
1442.0 4504.0
366.0 4505.0
857.0 4505.0
1390.0 4505.0
383.0 4506.0
680.0 4506.0
763.0 4506.0
1014.0 4506.0
1118.0 4506.0
1252.0 4506.0
625.0 4507.0
1114.0 4507.0
1165.0 4507.0
1172.0 4507.0
1222.0 4507.0
1442.0 4507.0
1012.0 4508.0
1135.0 4508.0
763.0 4509.0
1340.0 4509.0
680.0 4510.0
894.0 4510.0
1442.0 4510.0
235.0 4511.0
1156.0 4511.0
1337.0 4511.0
456.0 4512.0
763.0 4512.0
841.0 4512.0
880.0 4512.0
959.0 4512.0
1254.0 4512.0
347.0 4513.0
866.0 4513.0
941.0 4513.0
1001.0 4513.0
1016.0 4513.0
1253.0 4513.0
1417.0 4513.0
1442.0 4513.0
599.0 4514.0
680.0 4514.0
903.0 4514.0
973.0 4514.0
763.0 4515.0
1105.0 4515.0
1068.0 4516.0
1442.0 4516.0
714.0 4517.0
725.0 4517.0
949.0 4517.0
1226.0 4517.0
1423.0 4517.0
591.0 4518.0
680.0 4518.0
735.0 4518.0
763.0 4518.0
1404.0 4518.0
1225.0 4519.0
1442.0 4519.0
842.0 4520.0
843.0 4520.0
985.0 4520.0
991.0 4520.0
763.0 4521.0
870.0 4521.0
1038.0 4521.0
1251.0 4521.0
680.0 4522.0
852.0 4522.0
1088.0 4522.0
1390.0 4522.0
1442.0 4522.0
860.0 4523.0
1271.0 4523.0
736.0 4524.0
763.0 4524.0
857.0 4524.0
866.0 4524.0
1165.0 4524.0
1172.0 4524.0
1418.0 4524.0
950.0 4525.0
1012.0 4525.0
1075.0 4525.0
1087.0 4525.0
1204.0 4525.0
1345.0 4525.0
1442.0 4525.0
680.0 4526.0
738.0 4526.0
861.0 4526.0
763.0 4527.0
1114.0 4528.0
1118.0 4528.0
1156.0 4528.0
1222.0 4528.0
1442.0 4528.0
612.0 4529.0
726.0 4529.0
880.0 4529.0
1136.0 4529.0
1340.0 4529.0
680.0 4530.0
763.0 4530.0
1001.0 4530.0
851.0 4531.0
1135.0 4531.0
1442.0 4531.0
1016.0 4532.0
1134.0 4532.0
1253.0 4532.0
1337.0 4532.0
456.0 4533.0
763.0 4533.0
951.0 4533.0
998.0 4533.0
1254.0 4533.0
347.0 4534.0
680.0 4534.0
725.0 4534.0
735.0 4534.0
973.0 4534.0
1105.0 4534.0
1442.0 4534.0
599.0 4535.0
959.0 4535.0
466.0 4536.0
763.0 4536.0
841.0 4536.0
866.0 4536.0
1404.0 4536.0
714.0 4537.0
941.0 4537.0
949.0 4537.0
1068.0 4537.0
1226.0 4537.0
1417.0 4537.0
1439.0 4537.0
1442.0 4537.0
591.0 4538.0
680.0 4538.0
1038.0 4538.0
1423.0 4538.0
763.0 4539.0
1251.0 4539.0
1390.0 4539.0
991.0 4540.0
1442.0 4540.0
1172.0 4541.0
680.0 4542.0
763.0 4542.0
843.0 4542.0
852.0 4542.0
857.0 4542.0
1012.0 4542.0
1165.0 4542.0
719.0 4543.0
860.0 4543.0
1018.0 4543.0
1115.0 4543.0
1442.0 4543.0
736.0 4544.0
842.0 4544.0
763.0 4545.0
880.0 4545.0
1088.0 4545.0
1156.0 4545.0
680.0 4546.0
1087.0 4546.0
1418.0 4546.0
1442.0 4546.0
881.0 4547.0
950.0 4547.0
1001.0 4547.0
1075.0 4547.0
1204.0 4547.0
1257.0 4547.0
1262.0 4547.0
738.0 4548.0
763.0 4548.0
861.0 4548.0
866.0 4548.0
886.0 4548.0
889.0 4548.0
1345.0 4548.0
1114.0 4549.0
1222.0 4549.0
1340.0 4549.0
1442.0 4549.0
680.0 4550.0
735.0 4550.0
1253.0 4550.0
725.0 4551.0
763.0 4551.0
850.0 4551.0
1016.0 4551.0
1118.0 4551.0
1148.0 4551.0
1442.0 4552.0
1105.0 4553.0
1337.0 4553.0
1446.0 4553.0
456.0 4554.0
680.0 4554.0
763.0 4554.0
973.0 4554.0
1135.0 4554.0
1404.0 4554.0
347.0 4555.0
863.0 4555.0
1038.0 4555.0
1243.0 4555.0
1251.0 4555.0
1254.0 4555.0
1442.0 4555.0
599.0 4556.0
1390.0 4556.0
478.0 4557.0
714.0 4557.0
763.0 4557.0
949.0 4557.0
1226.0 4557.0
591.0 4558.0
680.0 4558.0
959.0 4558.0
1012.0 4558.0
1068.0 4558.0
1172.0 4558.0
1174.0 4558.0
1442.0 4558.0
1423.0 4559.0
763.0 4560.0
841.0 4560.0
857.0 4560.0
866.0 4560.0
941.0 4560.0
989.0 4560.0
991.0 4560.0
1165.0 4560.0
1236.0 4560.0
1355.0 4560.0
880.0 4561.0
1223.0 4561.0
1241.0 4561.0
1417.0 4561.0
1442.0 4561.0
680.0 4562.0
860.0 4562.0
1133.0 4562.0
1156.0 4562.0
241.0 4563.0
763.0 4563.0
852.0 4563.0
1305.0 4563.0
1433.0 4563.0
744.0 4564.0
843.0 4564.0
1001.0 4564.0
1442.0 4564.0
735.0 4565.0
736.0 4565.0
893.0 4565.0
680.0 4566.0
763.0 4566.0
1010.0 4566.0
1022.0 4566.0
1419.0 4566.0
475.0 4567.0
725.0 4567.0
864.0 4567.0
1442.0 4567.0
625.0 4568.0
632.0 4568.0
842.0 4568.0
894.0 4568.0
992.0 4568.0
1087.0 4568.0
1088.0 4568.0
1144.0 4568.0
1222.0 4568.0
1418.0 4568.0
1436.0 4568.0
334.0 4569.0
763.0 4569.0
950.0 4569.0
1016.0 4569.0
1204.0 4569.0
1253.0 4569.0
1340.0 4569.0
613.0 4570.0
680.0 4570.0
738.0 4570.0
754.0 4570.0
762.0 4570.0
861.0 4570.0
1014.0 4570.0
1075.0 4570.0
1114.0 4570.0
1300.0 4570.0
1345.0 4570.0
1388.0 4570.0
1442.0 4570.0
1031.0 4571.0
1105.0 4571.0
763.0 4572.0
866.0 4572.0
1038.0 4572.0
1251.0 4572.0
1390.0 4572.0
1404.0 4572.0
1442.0 4573.0
589.0 4574.0
680.0 4574.0
973.0 4574.0
1012.0 4574.0
1118.0 4574.0
1337.0 4574.0
456.0 4575.0
590.0 4575.0
763.0 4575.0
347.0 4576.0
599.0 4576.0
601.0 4576.0
714.0 4576.0
949.0 4576.0
1135.0 4576.0
1172.0 4576.0
1254.0 4576.0
1442.0 4576.0
605.0 4577.0
734.0 4577.0
985.0 4577.0
1226.0 4577.0
591.0 4578.0
680.0 4578.0
763.0 4578.0
851.0 4578.0
819.0 4579.0
857.0 4579.0
880.0 4579.0
959.0 4579.0
994.0 4579.0
1068.0 4579.0
1156.0 4579.0
1165.0 4579.0
1442.0 4579.0
860.0 4580.0
991.0 4580.0
1247.0 4580.0
1423.0 4580.0
763.0 4581.0
1398.0 4581.0
680.0 4582.0
735.0 4582.0
743.0 4582.0
852.0 4582.0
1001.0 4582.0
1442.0 4582.0
725.0 4583.0
763.0 4584.0
866.0 4584.0
841.0 4585.0
843.0 4585.0
941.0 4585.0
1225.0 4585.0
1417.0 4585.0
1442.0 4585.0
680.0 4586.0
736.0 4587.0
763.0 4587.0
883.0 4587.0
1016.0 4587.0
1038.0 4588.0
1251.0 4588.0
1253.0 4588.0
1442.0 4588.0
1087.0 4589.0
1105.0 4589.0
1222.0 4589.0
1390.0 4589.0
1418.0 4589.0
232.0 4590.0
680.0 4590.0
763.0 4590.0
950.0 4590.0
1012.0 4590.0
1088.0 4590.0
1114.0 4590.0
1204.0 4590.0
1340.0 4590.0
1404.0 4590.0
842.0 4591.0
726.0 4592.0
738.0 4592.0
861.0 4592.0
1075.0 4592.0
1345.0 4592.0
1442.0 4592.0
763.0 4593.0
965.0 4593.0
1172.0 4593.0
1252.0 4593.0
680.0 4594.0
729.0 4594.0
973.0 4594.0
612.0 4595.0
949.0 4595.0
456.0 4596.0
714.0 4596.0
763.0 4596.0
866.0 4596.0
880.0 4596.0
1118.0 4596.0
1156.0 4596.0
1226.0 4596.0
1337.0 4596.0
1442.0 4596.0
347.0 4597.0
599.0 4597.0
591.0 4598.0
1165.0 4598.0
1254.0 4598.0
735.0 4599.0
857.0 4599.0
860.0 4599.0
725.0 4600.0
