14.0 49900.0
14.0 49948.0
14.0 49981.0
14.0 50022.0
14.0 50064.0
14.0 50105.0
14.0 50144.0
14.0 50185.0
26.0 49807.0
26.0 49813.0
26.0 49818.0
26.0 49823.0
26.0 49828.0
26.0 49833.0
26.0 49838.0
26.0 49843.0
26.0 49848.0
26.0 49853.0
26.0 49858.0
26.0 49863.0
26.0 49868.0
26.0 49873.0
26.0 49878.0
26.0 49883.0
26.0 49888.0
26.0 49893.0
26.0 49898.0
26.0 49903.0
26.0 49908.0
26.0 49913.0
26.0 49918.0
26.0 49923.0
26.0 49928.0
26.0 49933.0
26.0 49938.0
26.0 49943.0
26.0 49948.0
26.0 49953.0
26.0 49958.0
26.0 49963.0
26.0 49968.0
26.0 49973.0
26.0 49978.0
26.0 49983.0
26.0 49989.0
26.0 49995.0
26.0 50001.0
26.0 50007.0
26.0 50013.0
26.0 50019.0
26.0 50025.0
26.0 50031.0
26.0 50037.0
26.0 50043.0
26.0 50049.0
26.0 50055.0
26.0 50061.0
26.0 50067.0
26.0 50073.0
26.0 50079.0
26.0 50085.0
26.0 50091.0
26.0 50097.0
26.0 50103.0
26.0 50109.0
26.0 50115.0
26.0 50121.0
26.0 50127.0
26.0 50133.0
26.0 50139.0
26.0 50145.0
26.0 50151.0
26.0 50157.0
26.0 50163.0
26.0 50169.0
26.0 50175.0
26.0 50181.0
26.0 50187.0
26.0 50193.0
62.0 49898.0
62.0 49948.0
62.0 49983.0
62.0 50024.0
62.0 50067.0
62.0 50108.0
62.0 50151.0
62.0 50193.0
87.0 49915.0
87.0 49957.0
87.0 49993.0
87.0 50040.0
87.0 50085.0
87.0 50126.0
87.0 50168.0
112.0 49860.0
112.0 49896.0
112.0 49929.0
112.0 49959.0
112.0 49984.0
112.0 50009.0
112.0 50034.0
112.0 50058.0
112.0 50083.0
112.0 50108.0
112.0 50134.0
112.0 50160.0
112.0 50184.0
121.0 50046.0
129.0 49861.0
129.0 49897.0
129.0 49932.0
129.0 49962.0
129.0 49986.0
129.0 50015.0
129.0 50043.0
129.0 50072.0
129.0 50100.0
129.0 50127.0
129.0 50155.0
129.0 50183.0
139.0 50047.0
139.0 50177.0
157.0 49913.0
157.0 49955.0
157.0 49990.0
157.0 50033.0
157.0 50075.0
157.0 50119.0
157.0 50159.0
159.0 49912.0
159.0 49955.0
159.0 49990.0
159.0 50034.0
159.0 50079.0
159.0 50122.0
159.0 50166.0
165.0 49934.0
165.0 49979.0
165.0 50043.0
165.0 50104.0
165.0 50175.0
166.0 49913.0
166.0 49956.0
166.0 49991.0
166.0 50036.0
166.0 50079.0
166.0 50123.0
166.0 50168.0
167.0 49917.0
167.0 49959.0
167.0 49998.0
167.0 50043.0
167.0 50087.0
167.0 50132.0
167.0 50175.0
185.0 49887.0
185.0 49938.0
185.0 49972.0
185.0 50008.0
185.0 50047.0
185.0 50083.0
185.0 50120.0
185.0 50160.0
185.0 50197.0
217.0 49856.0
217.0 49891.0
217.0 49926.0
217.0 49957.0
217.0 49981.0
217.0 50006.0
217.0 50032.0
217.0 50059.0
217.0 50086.0
217.0 50112.0
217.0 50137.0
217.0 50162.0
217.0 50190.0
224.0 49859.0
224.0 49891.0
224.0 49924.0
224.0 49952.0
224.0 49976.0
224.0 49999.0
224.0 50023.0
224.0 50047.0
224.0 50072.0
224.0 50096.0
224.0 50119.0
224.0 50143.0
224.0 50167.0
224.0 50191.0
227.0 49859.0
227.0 49896.0
227.0 49932.0
227.0 49963.0
227.0 49988.0
227.0 50016.0
227.0 50046.0
227.0 50074.0
227.0 50102.0
227.0 50130.0
227.0 50158.0
227.0 50185.0
232.0 49856.0
232.0 49888.0
232.0 49918.0
232.0 49947.0
232.0 49971.0
232.0 49993.0
232.0 50017.0
232.0 50040.0
232.0 50064.0
232.0 50089.0
232.0 50112.0
232.0 50135.0
232.0 50158.0
232.0 50183.0
235.0 49999.0
235.0 50071.0
235.0 50140.0
241.0 49857.0
241.0 49888.0
241.0 49920.0
241.0 49949.0
241.0 49973.0
241.0 49994.0
241.0 50017.0
241.0 50041.0
241.0 50065.0
241.0 50089.0
241.0 50112.0
241.0 50135.0
241.0 50156.0
241.0 50180.0
258.0 49859.0
258.0 49894.0
258.0 49928.0
258.0 49959.0
258.0 49984.0
258.0 50011.0
258.0 50039.0
258.0 50066.0
258.0 50092.0
258.0 50120.0
258.0 50146.0
258.0 50173.0
258.0 50200.0
259.0 49858.0
259.0 49895.0
259.0 49933.0
259.0 49964.0
259.0 49989.0
259.0 50016.0
259.0 50046.0
259.0 50074.0
259.0 50102.0
259.0 50132.0
259.0 50160.0
259.0 50188.0
286.0 49890.0
286.0 49940.0
286.0 49975.0
286.0 50019.0
286.0 50062.0
286.0 50103.0
286.0 50147.0
286.0 50194.0
296.0 49891.0
296.0 49936.0
296.0 49968.0
296.0 50000.0
296.0 50034.0
296.0 50069.0
296.0 50103.0
296.0 50138.0
296.0 50174.0
303.0 49874.0
303.0 49920.0
303.0 49956.0
303.0 49985.0
303.0 50017.0
303.0 50050.0
303.0 50084.0
303.0 50120.0
303.0 50152.0
303.0 50186.0
306.0 49897.0
306.0 49947.0
306.0 49982.0
306.0 50024.0
306.0 50066.0
306.0 50110.0
306.0 50152.0
306.0 50194.0
328.0 49856.0
328.0 49888.0
328.0 49924.0
328.0 49958.0
328.0 49983.0
328.0 50011.0
328.0 50040.0
328.0 50069.0
328.0 50097.0
328.0 50124.0
328.0 50153.0
328.0 50183.0
334.0 49857.0
334.0 49892.0
334.0 49924.0
334.0 49954.0
334.0 49978.0
334.0 50003.0
334.0 50027.0
334.0 50052.0
334.0 50077.0
334.0 50101.0
334.0 50126.0
334.0 50151.0
334.0 50177.0
344.0 50078.0
347.0 49837.0
347.0 49858.0
347.0 49877.0
347.0 49897.0
347.0 49915.0
347.0 49932.0
347.0 49948.0
347.0 49962.0
347.0 49976.0
347.0 49990.0
347.0 50004.0
347.0 50018.0
347.0 50032.0
347.0 50046.0
347.0 50060.0
347.0 50074.0
347.0 50088.0
347.0 50103.0
347.0 50118.0
347.0 50132.0
347.0 50146.0
347.0 50160.0
347.0 50175.0
347.0 50189.0
366.0 49858.0
366.0 49890.0
366.0 49923.0
366.0 49952.0
366.0 49977.0
366.0 49999.0
366.0 50023.0
366.0 50047.0
366.0 50071.0
366.0 50096.0
366.0 50121.0
366.0 50145.0
366.0 50168.0
366.0 50193.0
368.0 50027.0
368.0 50129.0
377.0 49991.0
377.0 50063.0
377.0 50133.0
377.0 50198.0
382.0 49859.0
382.0 49898.0
382.0 49938.0
382.0 49968.0
382.0 49995.0
382.0 50025.0
382.0 50054.0
382.0 50085.0
382.0 50115.0
382.0 50145.0
382.0 50175.0
383.0 49989.0
383.0 50046.0
383.0 50097.0
383.0 50156.0
428.0 49910.0
428.0 49953.0
428.0 49986.0
428.0 50025.0
428.0 50064.0
428.0 50104.0
428.0 50145.0
428.0 50185.0
434.0 49914.0
434.0 49958.0
434.0 49995.0
434.0 50042.0
434.0 50087.0
434.0 50128.0
434.0 50169.0
435.0 49898.0
435.0 49944.0
435.0 49978.0
435.0 50014.0
435.0 50048.0
435.0 50082.0
435.0 50120.0
435.0 50152.0
435.0 50192.0
449.0 50000.0
449.0 50076.0
449.0 50144.0
449.0 50199.0
450.0 49871.0
450.0 49921.0
450.0 49957.0
450.0 49988.0
450.0 50025.0
450.0 50061.0
450.0 50097.0
450.0 50133.0
450.0 50169.0
456.0 49869.0
456.0 49913.0
456.0 49947.0
456.0 49970.0
456.0 49991.0
456.0 50011.0
456.0 50033.0
456.0 50054.0
456.0 50075.0
456.0 50096.0
456.0 50117.0
456.0 50138.0
456.0 50159.0
456.0 50180.0
466.0 49988.0
466.0 50047.0
466.0 50101.0
466.0 50155.0
468.0 49996.0
468.0 50071.0
468.0 50142.0
474.0 50005.0
474.0 50074.0
474.0 50140.0
475.0 49986.0
475.0 50041.0
475.0 50098.0
475.0 50164.0
477.0 49899.0
477.0 49948.0
477.0 49984.0
477.0 50025.0
477.0 50073.0
477.0 50121.0
477.0 50168.0
478.0 50021.0
478.0 50099.0
478.0 50177.0
487.0 49858.0
487.0 49895.0
487.0 49930.0
487.0 49959.0
487.0 49984.0
487.0 50012.0
487.0 50039.0
487.0 50066.0
487.0 50093.0
487.0 50121.0
487.0 50148.0
487.0 50174.0
488.0 50036.0
488.0 50126.0
493.0 50014.0
493.0 50093.0
493.0 50177.0
496.0 50035.0
496.0 50150.0
504.0 50023.0
513.0 50095.0
558.0 49910.0
558.0 49951.0
558.0 49984.0
558.0 50020.0
558.0 50061.0
558.0 50097.0
558.0 50134.0
558.0 50170.0
580.0 49916.0
580.0 49959.0
580.0 50001.0
580.0 50049.0
580.0 50097.0
580.0 50145.0
580.0 50192.0
581.0 50033.0
581.0 50130.0
589.0 50035.0
589.0 50125.0
590.0 50107.0
591.0 49867.0
591.0 49909.0
591.0 49939.0
591.0 49963.0
591.0 49983.0
591.0 50002.0
591.0 50022.0
591.0 50042.0
591.0 50062.0
591.0 50082.0
591.0 50102.0
591.0 50122.0
591.0 50142.0
591.0 50162.0
591.0 50182.0
598.0 50077.0
598.0 50189.0
599.0 49838.0
599.0 49859.0
599.0 49879.0
599.0 49899.0
599.0 49918.0
599.0 49938.0
599.0 49954.0
599.0 49969.0
599.0 49983.0
599.0 49998.0
599.0 50012.0
599.0 50027.0
599.0 50041.0
599.0 50056.0
599.0 50071.0
599.0 50085.0
599.0 50100.0
599.0 50114.0
599.0 50128.0
599.0 50143.0
599.0 50157.0
599.0 50172.0
599.0 50186.0
599.0 50200.0
601.0 49996.0
601.0 50070.0
601.0 50125.0
601.0 50185.0
605.0 49856.0
605.0 49885.0
605.0 49915.0
605.0 49943.0
605.0 49969.0
605.0 49990.0
605.0 50014.0
605.0 50037.0
605.0 50060.0
605.0 50084.0
605.0 50108.0
605.0 50132.0
605.0 50156.0
605.0 50180.0
607.0 49894.0
607.0 49939.0
607.0 49972.0
607.0 50004.0
607.0 50037.0
607.0 50076.0
607.0 50109.0
607.0 50141.0
607.0 50176.0
612.0 49993.0
612.0 50059.0
612.0 50125.0
612.0 50180.0
613.0 50010.0
613.0 50082.0
613.0 50149.0
615.0 50036.0
615.0 50147.0
623.0 49857.0
623.0 49890.0
623.0 49924.0
623.0 49954.0
623.0 49979.0
623.0 50005.0
623.0 50032.0
623.0 50060.0
623.0 50086.0
623.0 50113.0
623.0 50140.0
623.0 50167.0
623.0 50193.0
625.0 49989.0
625.0 50052.0
625.0 50131.0
631.0 49995.0
631.0 50079.0
631.0 50168.0
632.0 49855.0
632.0 49886.0
632.0 49916.0
632.0 49944.0
632.0 49969.0
632.0 49991.0
632.0 50014.0
632.0 50038.0
632.0 50063.0
632.0 50087.0
632.0 50110.0
632.0 50134.0
632.0 50159.0
632.0 50182.0
634.0 50089.0
638.0 50051.0
638.0 50179.0
641.0 50017.0
641.0 50099.0
641.0 50180.0
648.0 50056.0
680.0 49809.0
680.0 49815.0
680.0 49821.0
680.0 49827.0
680.0 49832.0
680.0 49838.0
680.0 49844.0
680.0 49850.0
680.0 49856.0
680.0 49862.0
680.0 49868.0
680.0 49874.0
680.0 49880.0
680.0 49886.0
680.0 49892.0
680.0 49898.0
680.0 49904.0
680.0 49908.0
680.0 49913.0
680.0 49918.0
680.0 49923.0
680.0 49928.0
680.0 49933.0
680.0 49938.0
680.0 49942.0
680.0 49946.0
680.0 49950.0
680.0 49954.0
680.0 49958.0
680.0 49962.0
680.0 49966.0
680.0 49970.0
680.0 49974.0
680.0 49978.0
680.0 49982.0
680.0 49986.0
680.0 49990.0
680.0 49994.0
680.0 49998.0
680.0 50002.0
680.0 50006.0
680.0 50010.0
680.0 50014.0
680.0 50018.0
680.0 50022.0
680.0 50026.0
680.0 50030.0
680.0 50034.0
680.0 50038.0
680.0 50042.0
680.0 50046.0
680.0 50050.0
680.0 50054.0
680.0 50058.0
680.0 50062.0
680.0 50066.0
680.0 50070.0
680.0 50074.0
680.0 50078.0
680.0 50082.0
680.0 50086.0
680.0 50090.0
680.0 50094.0
680.0 50098.0
680.0 50102.0
680.0 50106.0
680.0 50110.0
680.0 50114.0
680.0 50118.0
680.0 50122.0
680.0 50126.0
680.0 50130.0
680.0 50134.0
680.0 50138.0
680.0 50142.0
680.0 50146.0
680.0 50150.0
680.0 50154.0
680.0 50158.0
680.0 50162.0
680.0 50166.0
680.0 50170.0
680.0 50174.0
680.0 50178.0
680.0 50182.0
680.0 50186.0
680.0 50190.0
680.0 50194.0
696.0 49899.0
696.0 49949.0
696.0 49985.0
696.0 50019.0
696.0 50057.0
696.0 50092.0
696.0 50129.0
696.0 50169.0
708.0 49864.0
708.0 49904.0
708.0 49943.0
708.0 49974.0
708.0 50003.0
708.0 50032.0
708.0 50061.0
708.0 50092.0
708.0 50120.0
708.0 50151.0
708.0 50181.0
709.0 49911.0
709.0 49951.0
709.0 49981.0
709.0 50019.0
709.0 50050.0
709.0 50087.0
709.0 50122.0
709.0 50154.0
709.0 50193.0
714.0 49925.0
714.0 49961.0
714.0 49988.0
714.0 50012.0
714.0 50037.0
714.0 50064.0
714.0 50088.0
714.0 50113.0
714.0 50138.0
714.0 50164.0
714.0 50188.0
718.0 49875.0
718.0 49924.0
718.0 49959.0
718.0 49990.0
718.0 50026.0
718.0 50062.0
718.0 50097.0
718.0 50134.0
718.0 50169.0
725.0 49869.0
725.0 49908.0
725.0 49941.0
725.0 49966.0
725.0 49985.0
725.0 50005.0
725.0 50024.0
725.0 50044.0
725.0 50063.0
725.0 50082.0
725.0 50101.0
725.0 50120.0
725.0 50139.0
725.0 50159.0
725.0 50177.0
725.0 50196.0
726.0 50011.0
726.0 50080.0
726.0 50158.0
734.0 49904.0
734.0 49949.0
734.0 49984.0
734.0 50014.0
734.0 50049.0
734.0 50080.0
734.0 50112.0
734.0 50145.0
734.0 50176.0
735.0 49863.0
735.0 49902.0
735.0 49934.0
735.0 49960.0
735.0 49981.0
735.0 50000.0
735.0 50020.0
735.0 50038.0
735.0 50058.0
735.0 50077.0
735.0 50097.0
735.0 50116.0
735.0 50135.0
735.0 50154.0
735.0 50174.0
735.0 50193.0
736.0 49862.0
736.0 49900.0
736.0 49933.0
736.0 49958.0
736.0 49978.0
736.0 49998.0
736.0 50017.0
736.0 50036.0
736.0 50056.0
736.0 50076.0
736.0 50095.0
736.0 50115.0
736.0 50135.0
736.0 50154.0
736.0 50173.0
736.0 50193.0
738.0 49930.0
738.0 49968.0
738.0 49996.0
738.0 50024.0
738.0 50052.0
738.0 50080.0
738.0 50108.0
738.0 50136.0
738.0 50164.0
738.0 50192.0
743.0 50094.0
744.0 49895.0
744.0 49944.0
744.0 49980.0
744.0 50015.0
744.0 50050.0
744.0 50088.0
744.0 50121.0
744.0 50160.0
744.0 50196.0
745.0 49859.0
745.0 49894.0
745.0 49929.0
745.0 49959.0
745.0 49984.0
745.0 50009.0
745.0 50033.0
745.0 50061.0
745.0 50087.0
745.0 50112.0
745.0 50137.0
745.0 50164.0
745.0 50191.0
751.0 50030.0
751.0 50105.0
754.0 50007.0
754.0 50082.0
754.0 50182.0
762.0 49983.0
762.0 50032.0
762.0 50086.0
762.0 50140.0
762.0 50195.0
763.0 49807.0
763.0 49813.0
763.0 49818.0
763.0 49823.0
763.0 49828.0
763.0 49833.0
763.0 49838.0
763.0 49842.0
763.0 49846.0
763.0 49850.0
763.0 49854.0
763.0 49858.0
763.0 49862.0
763.0 49866.0
763.0 49870.0
763.0 49874.0
763.0 49878.0
763.0 49882.0
763.0 49886.0
763.0 49890.0
763.0 49894.0
763.0 49898.0
763.0 49902.0
763.0 49906.0
763.0 49910.0
763.0 49914.0
763.0 49918.0
763.0 49922.0
763.0 49926.0
763.0 49930.0
763.0 49934.0
763.0 49937.0
763.0 49941.0
763.0 49945.0
763.0 49948.0
763.0 49952.0
763.0 49955.0
763.0 49958.0
763.0 49961.0
763.0 49964.0
763.0 49967.0
763.0 49970.0
763.0 49973.0
763.0 49976.0
763.0 49979.0
763.0 49982.0
763.0 49985.0
763.0 49988.0
763.0 49991.0
763.0 49994.0
763.0 49997.0
763.0 50000.0
763.0 50003.0
763.0 50006.0
763.0 50009.0
763.0 50012.0
763.0 50015.0
763.0 50018.0
763.0 50021.0
763.0 50024.0
763.0 50027.0
763.0 50030.0
763.0 50033.0
763.0 50036.0
763.0 50039.0
763.0 50042.0
763.0 50045.0
763.0 50048.0
763.0 50051.0
763.0 50054.0
763.0 50057.0
763.0 50060.0
763.0 50063.0
763.0 50066.0
763.0 50069.0
763.0 50072.0
763.0 50075.0
763.0 50078.0
763.0 50081.0
763.0 50084.0
763.0 50087.0
763.0 50090.0
763.0 50093.0
763.0 50096.0
763.0 50099.0
763.0 50102.0
763.0 50105.0
763.0 50108.0
763.0 50111.0
763.0 50114.0
763.0 50117.0
763.0 50120.0
763.0 50123.0
763.0 50126.0
763.0 50129.0
763.0 50132.0
763.0 50135.0
763.0 50138.0
763.0 50141.0
763.0 50144.0
763.0 50147.0
763.0 50150.0
763.0 50153.0
763.0 50156.0
763.0 50159.0
763.0 50162.0
763.0 50165.0
763.0 50168.0
763.0 50171.0
763.0 50174.0
763.0 50177.0
763.0 50180.0
763.0 50183.0
763.0 50186.0
763.0 50189.0
763.0 50192.0
763.0 50195.0
841.0 49872.0
841.0 49916.0
841.0 49951.0
841.0 49976.0
841.0 50000.0
841.0 50024.0
841.0 50047.0
841.0 50070.0
841.0 50094.0
841.0 50118.0
841.0 50141.0
841.0 50165.0
841.0 50188.0
842.0 49943.0
842.0 49978.0
842.0 50007.0
842.0 50037.0
842.0 50068.0
842.0 50097.0
842.0 50126.0
842.0 50155.0
842.0 50184.0
843.0 49865.0
843.0 49904.0
843.0 49936.0
843.0 49961.0
843.0 49982.0
843.0 50002.0
843.0 50022.0
843.0 50042.0
843.0 50062.0
843.0 50082.0
843.0 50102.0
843.0 50122.0
843.0 50142.0
843.0 50161.0
843.0 50182.0
852.0 49933.0
852.0 49967.0
852.0 49994.0
852.0 50018.0
852.0 50043.0
852.0 50068.0
852.0 50091.0
852.0 50117.0
852.0 50142.0
852.0 50168.0
852.0 50193.0
857.0 49925.0
857.0 49957.0
857.0 49983.0
857.0 50008.0
857.0 50031.0
857.0 50055.0
857.0 50079.0
857.0 50102.0
857.0 50125.0
857.0 50149.0
857.0 50172.0
857.0 50196.0
860.0 49863.0
860.0 49902.0
860.0 49931.0
860.0 49956.0
860.0 49975.0
860.0 49993.0
860.0 50011.0
860.0 50029.0
860.0 50047.0
860.0 50065.0
860.0 50083.0
860.0 50101.0
860.0 50119.0
860.0 50137.0
860.0 50155.0
860.0 50173.0
860.0 50191.0
861.0 49864.0
861.0 49903.0
861.0 49938.0
861.0 49963.0
861.0 49984.0
861.0 50005.0
861.0 50025.0
861.0 50045.0
861.0 50067.0
861.0 50088.0
861.0 50108.0
861.0 50128.0
861.0 50149.0
861.0 50170.0
861.0 50191.0
866.0 49839.0
866.0 49862.0
866.0 49883.0
866.0 49904.0
866.0 49924.0
866.0 49942.0
866.0 49958.0
866.0 49972.0
866.0 49985.0
866.0 49997.0
866.0 50009.0
866.0 50021.0
866.0 50033.0
866.0 50046.0
866.0 50059.0
866.0 50072.0
866.0 50084.0
866.0 50097.0
866.0 50110.0
866.0 50123.0
866.0 50136.0
866.0 50149.0
866.0 50162.0
866.0 50175.0
866.0 50188.0
866.0 50200.0
870.0 49994.0
870.0 50066.0
870.0 50133.0
870.0 50193.0
880.0 49869.0
880.0 49909.0
880.0 49943.0
880.0 49968.0
880.0 49988.0
880.0 50009.0
880.0 50028.0
880.0 50048.0
880.0 50068.0
880.0 50087.0
880.0 50107.0
880.0 50127.0
880.0 50146.0
880.0 50165.0
880.0 50185.0
881.0 50008.0
881.0 50086.0
881.0 50173.0
883.0 50018.0
883.0 50084.0
883.0 50180.0
886.0 50106.0
889.0 50027.0
889.0 50141.0
893.0 50020.0
893.0 50132.0
894.0 50007.0
894.0 50082.0
894.0 50163.0
941.0 49944.0
941.0 49980.0
941.0 50009.0
941.0 50040.0
941.0 50070.0
941.0 50101.0
941.0 50132.0
941.0 50161.0
941.0 50192.0
949.0 49923.0
949.0 49958.0
949.0 49984.0
949.0 50008.0
949.0 50033.0
949.0 50058.0
949.0 50083.0
949.0 50108.0
949.0 50132.0
949.0 50157.0
949.0 50181.0
950.0 49943.0
950.0 49979.0
950.0 50009.0
950.0 50039.0
950.0 50069.0
950.0 50097.0
950.0 50125.0
950.0 50154.0
950.0 50185.0
959.0 49938.0
959.0 49975.0
959.0 50004.0
959.0 50032.0
959.0 50060.0
959.0 50088.0
959.0 50116.0
959.0 50143.0
959.0 50171.0
959.0 50199.0
973.0 49927.0
973.0 49962.0
973.0 49988.0
973.0 50014.0
973.0 50039.0
973.0 50066.0
973.0 50091.0
973.0 50118.0
973.0 50143.0
973.0 50167.0
973.0 50194.0
989.0 50003.0
989.0 50066.0
989.0 50126.0
989.0 50193.0
991.0 49931.0
991.0 49966.0
991.0 49991.0
991.0 50016.0
991.0 50042.0
991.0 50067.0
991.0 50092.0
991.0 50119.0
991.0 50144.0
991.0 50168.0
991.0 50194.0
992.0 50026.0
992.0 50098.0
992.0 50177.0
994.0 50019.0
994.0 50085.0
994.0 50154.0
1001.0 49873.0
1001.0 49918.0
1001.0 49953.0
1001.0 49978.0
1001.0 49999.0
1001.0 50019.0
1001.0 50041.0
1001.0 50062.0
1001.0 50082.0
1001.0 50103.0
1001.0 50125.0
1001.0 50146.0
1001.0 50167.0
1001.0 50188.0
1010.0 50110.0
1012.0 49867.0
1012.0 49909.0
1012.0 49943.0
1012.0 49968.0
1012.0 49988.0
1012.0 50009.0
1012.0 50028.0
1012.0 50047.0
1012.0 50068.0
1012.0 50088.0
1012.0 50108.0
1012.0 50127.0
1012.0 50147.0
1012.0 50167.0
1012.0 50188.0
1014.0 50015.0
1014.0 50087.0
1014.0 50166.0
1016.0 49874.0
1016.0 49923.0
1016.0 49958.0
1016.0 49983.0
1016.0 50005.0
1016.0 50027.0
1016.0 50049.0
1016.0 50071.0
1016.0 50093.0
1016.0 50116.0
1016.0 50138.0
1016.0 50160.0
1016.0 50182.0
1018.0 50017.0
1018.0 50097.0
1018.0 50178.0
1021.0 50047.0
1021.0 50149.0
1022.0 50110.0
1031.0 49996.0
1031.0 50059.0
1031.0 50131.0
1031.0 50195.0
1038.0 49866.0
1038.0 49910.0
1038.0 49944.0
1038.0 49970.0
1038.0 49990.0
1038.0 50009.0
1038.0 50029.0
1038.0 50049.0
1038.0 50068.0
1038.0 50088.0
1038.0 50108.0
1038.0 50129.0
1038.0 50148.0
1038.0 50168.0
1038.0 50189.0
1068.0 49938.0
1068.0 49973.0
1068.0 50001.0
1068.0 50029.0
1068.0 50057.0
1068.0 50085.0
1068.0 50113.0
1068.0 50141.0
1068.0 50168.0
1068.0 50195.0
1075.0 49934.0
1075.0 49972.0
1075.0 50001.0
1075.0 50030.0
1075.0 50058.0
1075.0 50086.0
1075.0 50116.0
1075.0 50144.0
1075.0 50172.0
1087.0 49938.0
1087.0 49973.0
1087.0 50001.0
1087.0 50028.0
1087.0 50056.0
1087.0 50084.0
1087.0 50111.0
1087.0 50139.0
1087.0 50167.0
1087.0 50195.0
1088.0 49942.0
1088.0 49977.0
1088.0 50007.0
1088.0 50036.0
1088.0 50065.0
1088.0 50095.0
1088.0 50124.0
1088.0 50154.0
1088.0 50183.0
1105.0 49919.0
1105.0 49953.0
1105.0 49979.0
1105.0 50003.0
1105.0 50026.0
1105.0 50050.0
1105.0 50074.0
1105.0 50098.0
1105.0 50122.0
1105.0 50146.0
1105.0 50170.0
1105.0 50194.0
1114.0 49920.0
1114.0 49957.0
1114.0 49983.0
1114.0 50007.0
1114.0 50033.0
1114.0 50059.0
1114.0 50085.0
1114.0 50111.0
1114.0 50136.0
1114.0 50162.0
1114.0 50187.0
1118.0 49931.0
1118.0 49967.0
1118.0 49995.0
1118.0 50023.0
1118.0 50050.0
1118.0 50078.0
1118.0 50106.0
1118.0 50135.0
1118.0 50162.0
1118.0 50190.0
1134.0 49993.0
1134.0 50065.0
1134.0 50128.0
1134.0 50185.0
1135.0 49941.0
1135.0 49978.0
1135.0 50009.0
1135.0 50040.0
1135.0 50072.0
1135.0 50104.0
1135.0 50134.0
1135.0 50164.0
1135.0 50196.0
1136.0 50076.0
1144.0 50081.0
1148.0 50015.0
1148.0 50091.0
1148.0 50174.0
1156.0 49866.0
1156.0 49909.0
1156.0 49945.0
1156.0 49970.0
1156.0 49991.0
1156.0 50012.0
1156.0 50032.0
1156.0 50053.0
1156.0 50074.0
1156.0 50094.0
1156.0 50114.0
1156.0 50135.0
1156.0 50156.0
1156.0 50176.0
1156.0 50196.0
1165.0 49865.0
1165.0 49910.0
1165.0 49944.0
1165.0 49971.0
1165.0 49992.0
1165.0 50013.0
1165.0 50036.0
1165.0 50057.0
1165.0 50079.0
1165.0 50100.0
1165.0 50122.0
1165.0 50144.0
1165.0 50166.0
1165.0 50188.0
1172.0 49864.0
1172.0 49906.0
1172.0 49942.0
1172.0 49969.0
1172.0 49990.0
1172.0 50011.0
1172.0 50031.0
1172.0 50052.0
1172.0 50073.0
1172.0 50092.0
1172.0 50112.0
1172.0 50133.0
1172.0 50154.0
1172.0 50175.0
1172.0 50196.0
1204.0 49934.0
1204.0 49971.0
1204.0 49999.0
1204.0 50027.0
1204.0 50056.0
1204.0 50084.0
1204.0 50112.0
1204.0 50140.0
1204.0 50169.0
1204.0 50197.0
1222.0 49926.0
1222.0 49962.0
1222.0 49989.0
1222.0 50014.0
1222.0 50041.0
1222.0 50066.0
1222.0 50093.0
1222.0 50120.0
1222.0 50146.0
1222.0 50172.0
1222.0 50199.0
1226.0 49922.0
1226.0 49958.0
1226.0 49986.0
1226.0 50010.0
1226.0 50035.0
1226.0 50058.0
1226.0 50083.0
1226.0 50106.0
1226.0 50130.0
1226.0 50154.0
1226.0 50178.0
1251.0 49868.0
1251.0 49909.0
1251.0 49944.0
1251.0 49970.0
1251.0 49991.0
1251.0 50011.0
1251.0 50031.0
1251.0 50052.0
1251.0 50073.0
1251.0 50092.0
1251.0 50112.0
1251.0 50133.0
1251.0 50152.0
1251.0 50172.0
1251.0 50193.0
1252.0 49997.0
1252.0 50073.0
1252.0 50147.0
1253.0 49867.0
1253.0 49911.0
1253.0 49950.0
1253.0 49976.0
1253.0 49998.0
1253.0 50021.0
1253.0 50043.0
1253.0 50065.0
1253.0 50087.0
1253.0 50109.0
1253.0 50131.0
1253.0 50154.0
1253.0 50177.0
1253.0 50200.0
1254.0 49930.0
1254.0 49968.0
1254.0 49996.0
1254.0 50022.0
1254.0 50049.0
1254.0 50077.0
1254.0 50104.0
1254.0 50133.0
1254.0 50161.0
1254.0 50189.0
1262.0 50029.0
1262.0 50101.0
1271.0 50105.0
1300.0 50049.0
1305.0 50117.0
1337.0 49930.0
1337.0 49968.0
1337.0 49996.0
1337.0 50024.0
1337.0 50050.0
1337.0 50077.0
1337.0 50105.0
1337.0 50132.0
1337.0 50160.0
1337.0 50188.0
1340.0 49933.0
1340.0 49969.0
1340.0 49997.0
1340.0 50024.0
1340.0 50051.0
1340.0 50078.0
1340.0 50105.0
1340.0 50132.0
1340.0 50159.0
1340.0 50187.0
1345.0 49935.0
1345.0 49972.0
1345.0 50001.0
1345.0 50029.0
1345.0 50058.0
1345.0 50088.0
1345.0 50116.0
1345.0 50145.0
1345.0 50173.0
1390.0 49869.0
1390.0 49912.0
1390.0 49946.0
1390.0 49972.0
1390.0 49993.0
1390.0 50014.0
1390.0 50035.0
1390.0 50057.0
1390.0 50078.0
1390.0 50099.0
1390.0 50119.0
1390.0 50138.0
1390.0 50159.0
1390.0 50180.0
1404.0 49869.0
1404.0 49916.0
1404.0 49952.0
1404.0 49977.0
1404.0 49999.0
1404.0 50021.0
1404.0 50042.0
1404.0 50063.0
1404.0 50084.0
1404.0 50105.0
1404.0 50127.0
1404.0 50148.0
1404.0 50169.0
1404.0 50191.0
1417.0 49944.0
1417.0 49980.0
1417.0 50011.0
1417.0 50043.0
1417.0 50074.0
1417.0 50106.0
1417.0 50138.0
1417.0 50170.0
1418.0 49936.0
1418.0 49973.0
1418.0 50002.0
1418.0 50030.0
1418.0 50059.0
1418.0 50087.0
1418.0 50116.0
1418.0 50144.0
1418.0 50173.0
1423.0 49936.0
1423.0 49973.0
1423.0 50002.0
1423.0 50029.0
1423.0 50057.0
1423.0 50085.0
1423.0 50113.0
1423.0 50141.0
1423.0 50169.0
1423.0 50197.0
1442.0 49809.0
1442.0 49815.0
1442.0 49821.0
1442.0 49827.0
1442.0 49833.0
1442.0 49839.0
1442.0 49845.0
1442.0 49851.0
1442.0 49857.0
1442.0 49863.0
1442.0 49869.0
1442.0 49875.0
1442.0 49881.0
1442.0 49887.0
1442.0 49893.0
1442.0 49899.0
1442.0 49905.0
1442.0 49911.0
1442.0 49917.0
1442.0 49922.0
1442.0 49927.0
1442.0 49932.0
1442.0 49937.0
1442.0 49942.0
1442.0 49947.0
1442.0 49952.0
1442.0 49957.0
1442.0 49962.0
1442.0 49966.0
1442.0 49970.0
1442.0 49974.0
1442.0 49978.0
1442.0 49982.0
1442.0 49986.0
1442.0 49990.0
1442.0 49994.0
1442.0 49998.0
1442.0 50002.0
1442.0 50006.0
1442.0 50010.0
1442.0 50014.0
1442.0 50018.0
1442.0 50022.0
1442.0 50026.0
1442.0 50030.0
1442.0 50034.0
1442.0 50038.0
1442.0 50042.0
1442.0 50046.0
1442.0 50050.0
1442.0 50054.0
1442.0 50058.0
1442.0 50062.0
1442.0 50066.0
1442.0 50070.0
1442.0 50074.0
1442.0 50078.0
1442.0 50082.0
1442.0 50086.0
1442.0 50090.0
1442.0 50094.0
1442.0 50098.0
1442.0 50102.0
1442.0 50106.0
1442.0 50110.0
1442.0 50114.0
1442.0 50118.0
1442.0 50122.0
1442.0 50126.0
1442.0 50130.0
1442.0 50134.0
1442.0 50138.0
1442.0 50142.0
1442.0 50146.0
1442.0 50150.0
1442.0 50154.0
1442.0 50158.0
1442.0 50162.0
1442.0 50166.0
1442.0 50170.0
1442.0 50174.0
1442.0 50178.0
1442.0 50182.0
1442.0 50186.0
1442.0 50190.0
1442.0 50194.0
