680.0 50406.0
763.0 50406.0
1442.0 50406.0
26.0 50409.0
763.0 50410.0
1442.0 50410.0
680.0 50411.0
763.0 50414.0
1442.0 50414.0
26.0 50415.0
680.0 50416.0
763.0 50417.0
1442.0 50418.0
680.0 50420.0
26.0 50421.0
763.0 50421.0
1442.0 50422.0
680.0 50424.0
763.0 50424.0
1442.0 50426.0
26.0 50427.0
680.0 50428.0
763.0 50428.0
866.0 50428.0
1442.0 50430.0
347.0 50431.0
599.0 50431.0
763.0 50431.0
680.0 50432.0
26.0 50433.0
763.0 50434.0
1442.0 50434.0
680.0 50436.0
735.0 50437.0
1012.0 50437.0
1038.0 50437.0
1156.0 50437.0
1165.0 50437.0
1172.0 50437.0
736.0 50438.0
763.0 50438.0
860.0 50438.0
1001.0 50438.0
1251.0 50438.0
1253.0 50438.0
1390.0 50438.0
1442.0 50438.0
26.0 50439.0
591.0 50439.0
861.0 50439.0
1404.0 50439.0
680.0 50440.0
725.0 50440.0
841.0 50440.0
843.0 50440.0
880.0 50440.0
1016.0 50440.0
456.0 50441.0
973.0 50441.0
1105.0 50441.0
763.0 50442.0
852.0 50442.0
949.0 50442.0
991.0 50442.0
1114.0 50442.0
1226.0 50442.0
1254.0 50442.0
1337.0 50442.0
1340.0 50442.0
1345.0 50442.0
1423.0 50442.0
1442.0 50442.0
842.0 50443.0
857.0 50443.0
866.0 50443.0
950.0 50443.0
959.0 50443.0
1068.0 50443.0
1088.0 50443.0
1118.0 50443.0
1222.0 50443.0
1418.0 50443.0
680.0 50444.0
714.0 50444.0
738.0 50444.0
941.0 50444.0
1075.0 50444.0
1087.0 50444.0
1204.0 50444.0
26.0 50445.0
334.0 50445.0
605.0 50445.0
1135.0 50445.0
632.0 50446.0
763.0 50446.0
1417.0 50446.0
1442.0 50446.0
347.0 50447.0
366.0 50447.0
599.0 50447.0
112.0 50448.0
217.0 50448.0
224.0 50448.0
232.0 50448.0
328.0 50448.0
623.0 50448.0
680.0 50448.0
227.0 50449.0
241.0 50449.0
763.0 50449.0
1442.0 50450.0
26.0 50451.0
258.0 50451.0
259.0 50451.0
745.0 50451.0
296.0 50452.0
487.0 50452.0
680.0 50452.0
734.0 50452.0
129.0 50453.0
382.0 50453.0
744.0 50453.0
763.0 50453.0
185.0 50454.0
303.0 50454.0
1442.0 50454.0
14.0 50455.0
450.0 50455.0
708.0 50455.0
435.0 50456.0
680.0 50456.0
696.0 50456.0
26.0 50457.0
62.0 50457.0
159.0 50457.0
306.0 50457.0
434.0 50457.0
709.0 50457.0
718.0 50457.0
763.0 50457.0
866.0 50457.0
166.0 50458.0
428.0 50458.0
558.0 50458.0
607.0 50458.0
1442.0 50458.0
87.0 50459.0
286.0 50460.0
680.0 50460.0
157.0 50461.0
735.0 50461.0
763.0 50461.0
860.0 50461.0
477.0 50462.0
736.0 50462.0
1012.0 50462.0
1038.0 50462.0
1442.0 50462.0
26.0 50463.0
347.0 50463.0
580.0 50463.0
591.0 50463.0
599.0 50463.0
725.0 50463.0
1156.0 50463.0
1165.0 50463.0
1172.0 50463.0
1251.0 50463.0
167.0 50464.0
680.0 50464.0
843.0 50464.0
880.0 50464.0
1390.0 50464.0
763.0 50465.0
861.0 50465.0
1001.0 50466.0
1105.0 50466.0
1442.0 50466.0
857.0 50467.0
973.0 50467.0
1016.0 50467.0
1253.0 50467.0
1404.0 50467.0
456.0 50468.0
680.0 50468.0
852.0 50468.0
949.0 50468.0
1114.0 50468.0
1226.0 50468.0
26.0 50469.0
763.0 50469.0
991.0 50469.0
1340.0 50469.0
1222.0 50470.0
1254.0 50470.0
1337.0 50470.0
1442.0 50470.0
714.0 50471.0
841.0 50471.0
866.0 50471.0
959.0 50471.0
1068.0 50471.0
1118.0 50471.0
1345.0 50471.0
1423.0 50471.0
680.0 50472.0
738.0 50472.0
842.0 50472.0
1075.0 50472.0
1087.0 50472.0
1088.0 50472.0
1204.0 50472.0
1418.0 50472.0
763.0 50473.0
165.0 50474.0
1442.0 50474.0
26.0 50475.0
941.0 50475.0
950.0 50475.0
1135.0 50475.0
680.0 50476.0
763.0 50477.0
605.0 50478.0
1417.0 50478.0
1442.0 50478.0
347.0 50479.0
599.0 50480.0
680.0 50480.0
26.0 50481.0
366.0 50481.0
632.0 50481.0
763.0 50481.0
1442.0 50482.0
224.0 50484.0
232.0 50484.0
241.0 50484.0
334.0 50484.0
680.0 50484.0
763.0 50485.0
860.0 50485.0
735.0 50486.0
866.0 50486.0
1442.0 50486.0
26.0 50487.0
217.0 50487.0
112.0 50488.0
591.0 50488.0
623.0 50488.0
680.0 50488.0
725.0 50488.0
734.0 50488.0
736.0 50488.0
1038.0 50488.0
763.0 50489.0
1012.0 50489.0
303.0 50490.0
1105.0 50490.0
1172.0 50490.0
1442.0 50490.0
296.0 50491.0
857.0 50491.0
880.0 50491.0
1165.0 50491.0
1251.0 50491.0
227.0 50492.0
328.0 50492.0
680.0 50492.0
745.0 50492.0
843.0 50492.0
1156.0 50492.0
1390.0 50492.0
26.0 50493.0
185.0 50493.0
258.0 50493.0
450.0 50493.0
763.0 50493.0
861.0 50493.0
949.0 50493.0
973.0 50493.0
744.0 50494.0
1226.0 50494.0
1442.0 50494.0
1001.0 50495.0
1114.0 50495.0
14.0 50496.0
129.0 50496.0
347.0 50496.0
456.0 50496.0
487.0 50496.0
680.0 50496.0
696.0 50496.0
852.0 50496.0
991.0 50496.0
1016.0 50496.0
1404.0 50496.0
718.0 50497.0
763.0 50497.0
1340.0 50497.0
259.0 50498.0
435.0 50498.0
599.0 50498.0
607.0 50498.0
714.0 50498.0
1222.0 50498.0
1253.0 50498.0
1254.0 50498.0
1337.0 50498.0
1442.0 50498.0
26.0 50499.0
62.0 50499.0
428.0 50499.0
434.0 50499.0
558.0 50499.0
709.0 50499.0
1423.0 50499.0
159.0 50500.0
306.0 50500.0
680.0 50500.0
738.0 50500.0
866.0 50500.0
1068.0 50500.0
1087.0 50500.0
1118.0 50500.0
1345.0 50500.0
286.0 50501.0
382.0 50501.0
763.0 50501.0
959.0 50501.0
1075.0 50501.0
1088.0 50501.0
1204.0 50501.0
87.0 50502.0
166.0 50502.0
1418.0 50502.0
1442.0 50502.0
842.0 50503.0
680.0 50504.0
841.0 50504.0
950.0 50504.0
26.0 50505.0
708.0 50505.0
763.0 50505.0
941.0 50505.0
157.0 50506.0
477.0 50506.0
1135.0 50506.0
1442.0 50506.0
680.0 50508.0
860.0 50508.0
763.0 50509.0
735.0 50510.0
1417.0 50510.0
1442.0 50510.0
26.0 50511.0
580.0 50511.0
605.0 50511.0
167.0 50512.0
680.0 50512.0
725.0 50512.0
347.0 50513.0
591.0 50513.0
736.0 50513.0
763.0 50513.0
1038.0 50514.0
1105.0 50514.0
1442.0 50514.0
599.0 50515.0
857.0 50515.0
866.0 50515.0
680.0 50516.0
880.0 50516.0
1012.0 50516.0
26.0 50517.0
632.0 50517.0
763.0 50517.0
949.0 50517.0
1172.0 50517.0
1251.0 50518.0
1442.0 50518.0
843.0 50519.0
973.0 50519.0
1226.0 50519.0
1390.0 50519.0
232.0 50520.0
680.0 50520.0
1156.0 50520.0
1165.0 50520.0
224.0 50521.0
241.0 50521.0
366.0 50521.0
763.0 50521.0
861.0 50521.0
1114.0 50521.0
991.0 50522.0
1442.0 50522.0
26.0 50523.0
334.0 50523.0
456.0 50523.0
1001.0 50523.0
303.0 50524.0
680.0 50524.0
714.0 50524.0
734.0 50524.0
852.0 50524.0
1222.0 50524.0
1404.0 50524.0
763.0 50525.0
1254.0 50525.0
1340.0 50525.0
1337.0 50526.0
1442.0 50526.0
112.0 50527.0
1016.0 50527.0
1423.0 50527.0
217.0 50528.0
680.0 50528.0
738.0 50528.0
1068.0 50528.0
1087.0 50528.0
1345.0 50528.0
26.0 50529.0
296.0 50529.0
623.0 50529.0
763.0 50529.0
1075.0 50529.0
1118.0 50529.0
1204.0 50529.0
1253.0 50529.0
347.0 50530.0
866.0 50530.0
959.0 50530.0
1442.0 50530.0
1088.0 50531.0
1418.0 50531.0
450.0 50532.0
680.0 50532.0
744.0 50532.0
745.0 50532.0
860.0 50532.0
185.0 50533.0
599.0 50533.0
763.0 50533.0
165.0 50534.0
258.0 50534.0
1442.0 50534.0
26.0 50535.0
842.0 50535.0
941.0 50535.0
950.0 50535.0
328.0 50536.0
680.0 50536.0
696.0 50536.0
709.0 50536.0
718.0 50536.0
735.0 50536.0
841.0 50536.0
435.0 50537.0
1135.0 50537.0
14.0 50538.0
227.0 50538.0
558.0 50538.0
591.0 50538.0
725.0 50538.0
736.0 50538.0
763.0 50538.0
1105.0 50538.0
129.0 50539.0
857.0 50539.0
1442.0 50539.0
607.0 50540.0
680.0 50540.0
26.0 50541.0
62.0 50541.0
306.0 50541.0
487.0 50541.0
949.0 50541.0
1038.0 50541.0
159.0 50542.0
286.0 50542.0
428.0 50542.0
434.0 50543.0
763.0 50543.0
1417.0 50543.0
1442.0 50543.0
680.0 50544.0
880.0 50544.0
866.0 50545.0
1226.0 50545.0
166.0 50546.0
843.0 50546.0
973.0 50546.0
1251.0 50546.0
26.0 50547.0
347.0 50547.0
1012.0 50547.0
1114.0 50547.0
259.0 50548.0
680.0 50548.0
1172.0 50548.0
763.0 50549.0
991.0 50549.0
1390.0 50549.0
1442.0 50549.0
87.0 50550.0
157.0 50550.0
714.0 50551.0
477.0 50552.0
599.0 50552.0
680.0 50552.0
852.0 50552.0
26.0 50553.0
861.0 50553.0
1222.0 50553.0
763.0 50554.0
1156.0 50554.0
1442.0 50554.0
456.0 50555.0
680.0 50556.0
1340.0 50557.0
1254.0 50558.0
1337.0 50558.0
26.0 50559.0
167.0 50559.0
303.0 50559.0
605.0 50559.0
763.0 50559.0
860.0 50559.0
1442.0 50559.0
580.0 50560.0
680.0 50560.0
1087.0 50560.0
1068.0 50561.0
738.0 50562.0
1204.0 50562.0
1345.0 50562.0
1423.0 50562.0
680.0 50564.0
763.0 50564.0
866.0 50564.0
1165.0 50564.0
1442.0 50564.0
26.0 50565.0
959.0 50565.0
1075.0 50565.0
1118.0 50565.0
347.0 50566.0
1418.0 50566.0
296.0 50567.0
632.0 50567.0
1105.0 50567.0
680.0 50568.0
591.0 50569.0
763.0 50569.0
1088.0 50569.0
1442.0 50569.0
857.0 50570.0
1404.0 50570.0
26.0 50571.0
450.0 50571.0
941.0 50571.0
599.0 50572.0
680.0 50572.0
736.0 50572.0
949.0 50572.0
842.0 50574.0
950.0 50574.0
185.0 50575.0
366.0 50575.0
763.0 50575.0
1442.0 50575.0
232.0 50576.0
241.0 50576.0
680.0 50576.0
841.0 50576.0
1226.0 50576.0
26.0 50577.0
734.0 50577.0
709.0 50578.0
718.0 50578.0
558.0 50579.0
1135.0 50579.0
680.0 50580.0
224.0 50581.0
763.0 50581.0
973.0 50581.0
1442.0 50581.0
14.0 50582.0
435.0 50582.0
607.0 50582.0
725.0 50582.0
735.0 50582.0
1114.0 50582.0
26.0 50583.0
866.0 50583.0
62.0 50584.0
159.0 50584.0
680.0 50584.0
347.0 50586.0
714.0 50587.0
763.0 50587.0
843.0 50587.0
991.0 50587.0
1442.0 50587.0
306.0 50588.0
680.0 50588.0
26.0 50589.0
165.0 50589.0
166.0 50589.0
286.0 50589.0
434.0 50589.0
852.0 50589.0
428.0 50590.0
860.0 50591.0
1222.0 50591.0
1417.0 50591.0
680.0 50592.0
599.0 50593.0
763.0 50593.0
1442.0 50593.0
861.0 50594.0
26.0 50595.0
303.0 50595.0
157.0 50596.0
477.0 50596.0
680.0 50596.0
1340.0 50597.0
87.0 50598.0
1337.0 50598.0
456.0 50599.0
763.0 50599.0
1442.0 50599.0
680.0 50600.0
26.0 50601.0
1254.0 50602.0
1105.0 50603.0
1345.0 50603.0
591.0 50604.0
680.0 50604.0
866.0 50604.0
1087.0 50604.0
763.0 50605.0
1068.0 50605.0
1204.0 50605.0
1442.0 50605.0
167.0 50606.0
738.0 50606.0
26.0 50607.0
296.0 50607.0
347.0 50607.0
580.0 50608.0
680.0 50608.0
1423.0 50608.0
736.0 50610.0
959.0 50610.0
1118.0 50610.0
1418.0 50610.0
763.0 50611.0
1442.0 50611.0
450.0 50612.0
680.0 50612.0
949.0 50612.0
1075.0 50612.0
26.0 50613.0
599.0 50614.0
857.0 50614.0
680.0 50616.0
1226.0 50616.0
763.0 50617.0
941.0 50617.0
1088.0 50617.0
1442.0 50617.0
185.0 50618.0
26.0 50619.0
680.0 50620.0
709.0 50620.0
718.0 50620.0
1114.0 50621.0
950.0 50622.0
763.0 50623.0
1442.0 50623.0
842.0 50624.0
26.0 50625.0
680.0 50625.0
860.0 50625.0
973.0 50625.0
558.0 50626.0
607.0 50626.0
866.0 50626.0
14.0 50627.0
347.0 50628.0
680.0 50629.0
763.0 50629.0
1442.0 50629.0
26.0 50631.0
62.0 50631.0
159.0 50631.0
435.0 50631.0
991.0 50631.0
714.0 50632.0
680.0 50635.0
763.0 50635.0
852.0 50635.0
1222.0 50635.0
1442.0 50635.0
303.0 50636.0
599.0 50636.0
26.0 50637.0
680.0 50640.0
763.0 50641.0
1442.0 50641.0
26.0 50643.0
680.0 50645.0
763.0 50647.0
1442.0 50647.0
26.0 50649.0
680.0 50650.0
347.0 50652.0
866.0 50652.0
763.0 50653.0
1442.0 50653.0
26.0 50655.0
306.0 50655.0
680.0 50655.0
166.0 50656.0
763.0 50659.0
1442.0 50659.0
680.0 50660.0
26.0 50661.0
599.0 50662.0
591.0 50665.0
680.0 50665.0
763.0 50665.0
1105.0 50665.0
1442.0 50665.0
26.0 50667.0
680.0 50670.0
763.0 50671.0
1442.0 50671.0
26.0 50673.0
680.0 50675.0
347.0 50677.0
763.0 50677.0
866.0 50677.0
1442.0 50677.0
26.0 50679.0
434.0 50680.0
680.0 50680.0
1337.0 50682.0
763.0 50683.0
1442.0 50683.0
26.0 50685.0
450.0 50685.0
680.0 50685.0
599.0 50687.0
763.0 50689.0
680.0 50690.0
26.0 50691.0
1442.0 50691.0
680.0 50695.0
763.0 50695.0
860.0 50695.0
26.0 50697.0
1442.0 50699.0
680.0 50700.0
347.0 50701.0
763.0 50701.0
26.0 50703.0
303.0 50703.0
680.0 50705.0
866.0 50706.0
763.0 50707.0
1442.0 50707.0
26.0 50709.0
286.0 50709.0
680.0 50710.0
736.0 50711.0
763.0 50713.0
599.0 50714.0
26.0 50715.0
680.0 50715.0
1442.0 50715.0
763.0 50719.0
26.0 50721.0
680.0 50721.0
1442.0 50723.0
763.0 50725.0
26.0 50727.0
347.0 50727.0
680.0 50727.0
763.0 50731.0
1442.0 50731.0
26.0 50733.0
680.0 50733.0
763.0 50737.0
26.0 50739.0
680.0 50739.0
866.0 50739.0
1442.0 50739.0
763.0 50743.0
599.0 50744.0
26.0 50745.0
680.0 50745.0
1442.0 50747.0
763.0 50749.0
26.0 50751.0
680.0 50751.0
347.0 50755.0
763.0 50755.0
1442.0 50755.0
26.0 50757.0
680.0 50757.0
763.0 50761.0
26.0 50763.0
680.0 50763.0
1442.0 50763.0
763.0 50767.0
26.0 50769.0
680.0 50769.0
1442.0 50771.0
763.0 50773.0
599.0 50774.0
26.0 50775.0
680.0 50775.0
866.0 50775.0
763.0 50779.0
1442.0 50779.0
26.0 50781.0
680.0 50781.0
347.0 50784.0
763.0 50785.0
26.0 50787.0
680.0 50787.0
1442.0 50787.0
763.0 50791.0
680.0 50793.0
26.0 50795.0
1442.0 50795.0
