26.0 52206.0
680.0 52207.0
763.0 52209.0
1442.0 52209.0
26.0 52211.0
680.0 52213.0
26.0 52214.0
763.0 52215.0
1442.0 52215.0
680.0 52218.0
26.0 52219.0
763.0 52221.0
1442.0 52221.0
26.0 52222.0
680.0 52223.0
26.0 52227.0
763.0 52227.0
1442.0 52227.0
680.0 52228.0
26.0 52230.0
680.0 52233.0
763.0 52233.0
1442.0 52233.0
347.0 52234.0
599.0 52234.0
26.0 52235.0
26.0 52238.0
680.0 52238.0
763.0 52239.0
1442.0 52239.0
866.0 52240.0
26.0 52243.0
680.0 52243.0
763.0 52245.0
1442.0 52245.0
26.0 52247.0
450.0 52247.0
680.0 52248.0
14.0 52249.0
159.0 52249.0
166.0 52249.0
303.0 52249.0
62.0 52250.0
87.0 52250.0
185.0 52250.0
26.0 52251.0
763.0 52251.0
1442.0 52251.0
296.0 52252.0
306.0 52252.0
435.0 52252.0
477.0 52252.0
580.0 52252.0
680.0 52252.0
718.0 52252.0
157.0 52253.0
167.0 52253.0
286.0 52253.0
434.0 52253.0
558.0 52253.0
709.0 52253.0
165.0 52254.0
428.0 52254.0
607.0 52254.0
26.0 52255.0
347.0 52255.0
599.0 52255.0
680.0 52256.0
605.0 52257.0
763.0 52257.0
1442.0 52257.0
112.0 52258.0
217.0 52258.0
224.0 52258.0
232.0 52258.0
734.0 52258.0
26.0 52259.0
129.0 52259.0
241.0 52259.0
328.0 52259.0
632.0 52259.0
487.0 52260.0
680.0 52260.0
259.0 52261.0
366.0 52261.0
623.0 52261.0
227.0 52262.0
258.0 52262.0
745.0 52262.0
26.0 52263.0
334.0 52263.0
763.0 52263.0
866.0 52263.0
1442.0 52263.0
680.0 52264.0
744.0 52264.0
696.0 52265.0
860.0 52265.0
949.0 52265.0
736.0 52266.0
26.0 52267.0
382.0 52267.0
843.0 52267.0
1105.0 52267.0
1114.0 52267.0
680.0 52268.0
973.0 52268.0
1226.0 52268.0
591.0 52269.0
763.0 52269.0
861.0 52269.0
1118.0 52269.0
1442.0 52269.0
708.0 52270.0
852.0 52270.0
857.0 52270.0
959.0 52270.0
991.0 52270.0
26.0 52271.0
842.0 52271.0
941.0 52271.0
1222.0 52271.0
347.0 52272.0
680.0 52272.0
738.0 52272.0
1068.0 52272.0
1254.0 52272.0
1337.0 52272.0
456.0 52273.0
599.0 52273.0
1340.0 52273.0
1345.0 52273.0
714.0 52274.0
1204.0 52274.0
1418.0 52274.0
1423.0 52274.0
26.0 52275.0
450.0 52275.0
763.0 52275.0
950.0 52275.0
1075.0 52275.0
1087.0 52275.0
1442.0 52275.0
303.0 52276.0
680.0 52276.0
841.0 52276.0
1088.0 52276.0
14.0 52278.0
159.0 52278.0
166.0 52278.0
185.0 52278.0
296.0 52278.0
718.0 52278.0
26.0 52279.0
62.0 52279.0
558.0 52279.0
709.0 52279.0
1135.0 52279.0
435.0 52280.0
477.0 52280.0
680.0 52280.0
1417.0 52280.0
87.0 52281.0
157.0 52281.0
306.0 52281.0
580.0 52281.0
607.0 52281.0
763.0 52281.0
1442.0 52281.0
286.0 52282.0
428.0 52282.0
434.0 52282.0
26.0 52283.0
167.0 52284.0
680.0 52284.0
866.0 52284.0
165.0 52286.0
26.0 52287.0
763.0 52287.0
1442.0 52287.0
347.0 52288.0
680.0 52288.0
599.0 52290.0
26.0 52291.0
680.0 52292.0
734.0 52293.0
763.0 52293.0
1442.0 52293.0
605.0 52294.0
26.0 52295.0
112.0 52296.0
232.0 52296.0
680.0 52296.0
632.0 52297.0
224.0 52298.0
26.0 52299.0
217.0 52299.0
241.0 52299.0
763.0 52299.0
860.0 52299.0
1442.0 52299.0
680.0 52300.0
303.0 52301.0
129.0 52302.0
450.0 52302.0
26.0 52303.0
366.0 52303.0
680.0 52304.0
258.0 52305.0
296.0 52305.0
347.0 52305.0
487.0 52305.0
718.0 52305.0
763.0 52305.0
866.0 52305.0
949.0 52305.0
1105.0 52305.0
1442.0 52305.0
14.0 52306.0
62.0 52306.0
159.0 52306.0
166.0 52306.0
185.0 52306.0
328.0 52306.0
558.0 52306.0
745.0 52306.0
26.0 52307.0
334.0 52307.0
623.0 52307.0
709.0 52307.0
736.0 52307.0
435.0 52308.0
477.0 52308.0
591.0 52308.0
607.0 52308.0
680.0 52308.0
1114.0 52308.0
259.0 52309.0
286.0 52309.0
306.0 52309.0
599.0 52309.0
696.0 52309.0
1226.0 52309.0
157.0 52310.0
227.0 52310.0
861.0 52310.0
973.0 52310.0
26.0 52311.0
87.0 52311.0
428.0 52311.0
744.0 52311.0
763.0 52311.0
843.0 52311.0
857.0 52311.0
1442.0 52311.0
434.0 52312.0
580.0 52312.0
680.0 52312.0
167.0 52313.0
852.0 52313.0
959.0 52313.0
991.0 52313.0
1118.0 52313.0
1222.0 52314.0
26.0 52315.0
1337.0 52315.0
382.0 52316.0
680.0 52316.0
842.0 52316.0
714.0 52317.0
738.0 52317.0
763.0 52317.0
1068.0 52317.0
1204.0 52317.0
1442.0 52317.0
165.0 52318.0
456.0 52318.0
1254.0 52318.0
1340.0 52318.0
1345.0 52318.0
26.0 52319.0
941.0 52319.0
1087.0 52319.0
680.0 52320.0
347.0 52322.0
1418.0 52322.0
1423.0 52322.0
26.0 52323.0
763.0 52323.0
1442.0 52323.0
680.0 52324.0
950.0 52324.0
1075.0 52324.0
708.0 52325.0
303.0 52326.0
599.0 52326.0
866.0 52326.0
26.0 52327.0
450.0 52328.0
680.0 52328.0
1088.0 52328.0
296.0 52329.0
605.0 52329.0
763.0 52329.0
1442.0 52329.0
718.0 52330.0
734.0 52330.0
26.0 52331.0
841.0 52331.0
558.0 52332.0
680.0 52332.0
1135.0 52332.0
62.0 52333.0
185.0 52333.0
632.0 52333.0
709.0 52333.0
860.0 52333.0
14.0 52334.0
159.0 52334.0
166.0 52334.0
1417.0 52334.0
26.0 52335.0
232.0 52335.0
477.0 52335.0
763.0 52335.0
1442.0 52335.0
112.0 52336.0
435.0 52336.0
607.0 52336.0
680.0 52336.0
224.0 52337.0
241.0 52337.0
286.0 52337.0
306.0 52337.0
157.0 52338.0
26.0 52339.0
347.0 52339.0
428.0 52340.0
680.0 52340.0
167.0 52341.0
434.0 52341.0
763.0 52341.0
949.0 52341.0
1442.0 52341.0
87.0 52342.0
217.0 52342.0
1105.0 52342.0
26.0 52343.0
129.0 52343.0
366.0 52343.0
580.0 52343.0
599.0 52344.0
680.0 52344.0
736.0 52344.0
1114.0 52345.0
591.0 52346.0
26.0 52347.0
763.0 52347.0
866.0 52347.0
1442.0 52347.0
258.0 52348.0
680.0 52348.0
725.0 52349.0
745.0 52349.0
1226.0 52349.0
165.0 52350.0
487.0 52350.0
26.0 52351.0
303.0 52351.0
623.0 52351.0
680.0 52352.0
857.0 52352.0
973.0 52352.0
259.0 52353.0
334.0 52353.0
696.0 52353.0
763.0 52353.0
843.0 52353.0
861.0 52353.0
1442.0 52353.0
227.0 52354.0
744.0 52354.0
959.0 52354.0
26.0 52355.0
328.0 52355.0
450.0 52355.0
852.0 52355.0
991.0 52355.0
1222.0 52355.0
296.0 52356.0
347.0 52356.0
680.0 52356.0
718.0 52357.0
1118.0 52357.0
558.0 52358.0
1337.0 52358.0
26.0 52359.0
709.0 52359.0
714.0 52359.0
763.0 52359.0
1442.0 52359.0
185.0 52360.0
680.0 52360.0
738.0 52360.0
1068.0 52360.0
62.0 52361.0
1204.0 52361.0
14.0 52362.0
159.0 52362.0
166.0 52362.0
456.0 52362.0
599.0 52362.0
607.0 52362.0
1254.0 52362.0
1340.0 52362.0
1345.0 52362.0
26.0 52363.0
477.0 52363.0
382.0 52364.0
435.0 52364.0
680.0 52364.0
1087.0 52364.0
286.0 52365.0
306.0 52365.0
605.0 52365.0
763.0 52365.0
842.0 52365.0
860.0 52365.0
1442.0 52365.0
157.0 52366.0
734.0 52366.0
26.0 52367.0
866.0 52367.0
428.0 52368.0
680.0 52368.0
167.0 52369.0
632.0 52369.0
1418.0 52370.0
1423.0 52370.0
26.0 52371.0
87.0 52371.0
763.0 52371.0
1442.0 52371.0
232.0 52372.0
347.0 52372.0
434.0 52372.0
680.0 52372.0
941.0 52372.0
950.0 52372.0
1075.0 52372.0
224.0 52374.0
26.0 52375.0
580.0 52375.0
112.0 52376.0
241.0 52376.0
303.0 52376.0
680.0 52376.0
763.0 52377.0
949.0 52377.0
1442.0 52377.0
1105.0 52378.0
26.0 52379.0
599.0 52379.0
1088.0 52379.0
680.0 52380.0
296.0 52381.0
450.0 52381.0
1114.0 52381.0
165.0 52382.0
736.0 52382.0
26.0 52383.0
217.0 52383.0
366.0 52383.0
708.0 52383.0
763.0 52383.0
1442.0 52383.0
129.0 52384.0
591.0 52384.0
680.0 52384.0
718.0 52384.0
841.0 52384.0
558.0 52385.0
709.0 52386.0
26.0 52387.0
185.0 52387.0
1135.0 52387.0
347.0 52388.0
680.0 52388.0
1226.0 52388.0
1417.0 52388.0
62.0 52389.0
763.0 52389.0
866.0 52389.0
1442.0 52389.0
14.0 52390.0
159.0 52390.0
166.0 52390.0
607.0 52390.0
26.0 52391.0
477.0 52391.0
857.0 52391.0
258.0 52392.0
680.0 52392.0
286.0 52393.0
435.0 52393.0
487.0 52393.0
745.0 52393.0
157.0 52394.0
306.0 52394.0
623.0 52394.0
973.0 52394.0
26.0 52395.0
763.0 52395.0
861.0 52395.0
1222.0 52395.0
1442.0 52395.0
680.0 52396.0
843.0 52396.0
167.0 52397.0
599.0 52397.0
696.0 52397.0
744.0 52397.0
860.0 52397.0
959.0 52397.0
991.0 52397.0
428.0 52398.0
852.0 52398.0
26.0 52399.0
1337.0 52399.0
227.0 52400.0
259.0 52400.0
680.0 52400.0
303.0 52401.0
434.0 52401.0
605.0 52401.0
714.0 52401.0
734.0 52401.0
763.0 52401.0
1118.0 52401.0
1442.0 52401.0
87.0 52402.0
334.0 52402.0
738.0 52402.0
26.0 52403.0
1068.0 52403.0
580.0 52404.0
680.0 52404.0
1345.0 52404.0
347.0 52405.0
1340.0 52405.0
632.0 52406.0
1204.0 52406.0
1254.0 52406.0
26.0 52407.0
296.0 52407.0
328.0 52407.0
450.0 52407.0
456.0 52407.0
763.0 52407.0
1442.0 52407.0
680.0 52408.0
1087.0 52408.0
718.0 52410.0
866.0 52410.0
26.0 52411.0
558.0 52411.0
709.0 52411.0
382.0 52412.0
680.0 52412.0
842.0 52412.0
224.0 52413.0
241.0 52413.0
763.0 52413.0
1105.0 52413.0
1442.0 52413.0
112.0 52414.0
165.0 52414.0
185.0 52414.0
232.0 52414.0
599.0 52414.0
26.0 52415.0
680.0 52416.0
949.0 52416.0
1423.0 52416.0
62.0 52417.0
607.0 52417.0
1114.0 52417.0
14.0 52418.0
159.0 52418.0
166.0 52418.0
1418.0 52418.0
26.0 52419.0
477.0 52419.0
736.0 52419.0
763.0 52419.0
950.0 52419.0
1442.0 52419.0
680.0 52420.0
941.0 52420.0
1075.0 52420.0
286.0 52421.0
435.0 52421.0
157.0 52422.0
347.0 52422.0
26.0 52423.0
306.0 52423.0
366.0 52423.0
591.0 52424.0
680.0 52424.0
167.0 52425.0
217.0 52425.0
735.0 52425.0
763.0 52425.0
1226.0 52425.0
1442.0 52425.0
129.0 52426.0
303.0 52426.0
26.0 52427.0
428.0 52427.0
680.0 52428.0
434.0 52429.0
857.0 52430.0
860.0 52430.0
26.0 52431.0
599.0 52431.0
763.0 52431.0
866.0 52431.0
1088.0 52431.0
1442.0 52431.0
680.0 52432.0
87.0 52433.0
296.0 52433.0
580.0 52433.0
745.0 52434.0
26.0 52435.0
450.0 52435.0
973.0 52435.0
258.0 52436.0
487.0 52436.0
680.0 52436.0
558.0 52437.0
605.0 52437.0
718.0 52437.0
763.0 52437.0
841.0 52437.0
843.0 52437.0
861.0 52437.0
991.0 52437.0
1442.0 52437.0
708.0 52438.0
709.0 52438.0
1222.0 52438.0
26.0 52439.0
347.0 52439.0
734.0 52439.0
744.0 52439.0
852.0 52439.0
680.0 52440.0
1135.0 52440.0
623.0 52441.0
696.0 52441.0
185.0 52442.0
632.0 52442.0
959.0 52442.0
1337.0 52442.0
1417.0 52442.0
26.0 52443.0
227.0 52443.0
714.0 52443.0
763.0 52443.0
1442.0 52443.0
607.0 52444.0
680.0 52444.0
738.0 52444.0
62.0 52445.0
14.0 52446.0
159.0 52446.0
165.0 52446.0
166.0 52446.0
1118.0 52446.0
1345.0 52446.0
26.0 52447.0
477.0 52447.0
1068.0 52447.0
259.0 52448.0
435.0 52448.0
680.0 52448.0
1254.0 52448.0
286.0 52449.0
599.0 52449.0
763.0 52449.0
1105.0 52449.0
1204.0 52449.0
1340.0 52449.0
1442.0 52449.0
157.0 52450.0
224.0 52450.0
241.0 52450.0
334.0 52450.0
26.0 52451.0
1087.0 52451.0
112.0 52452.0
303.0 52452.0
306.0 52452.0
680.0 52452.0
949.0 52452.0
167.0 52453.0
866.0 52454.0
1114.0 52454.0
26.0 52455.0
232.0 52455.0
328.0 52455.0
428.0 52455.0
456.0 52455.0
763.0 52455.0
1442.0 52455.0
347.0 52456.0
680.0 52456.0
842.0 52456.0
296.0 52458.0
434.0 52458.0
736.0 52458.0
26.0 52459.0
382.0 52460.0
680.0 52460.0
366.0 52461.0
450.0 52461.0
763.0 52461.0
1226.0 52461.0
1442.0 52461.0
860.0 52462.0
1423.0 52462.0
26.0 52463.0
87.0 52463.0
558.0 52463.0
580.0 52463.0
718.0 52463.0
591.0 52464.0
680.0 52464.0
709.0 52465.0
599.0 52466.0
1418.0 52466.0
26.0 52467.0
129.0 52467.0
217.0 52467.0
763.0 52467.0
950.0 52467.0
1442.0 52467.0
680.0 52468.0
941.0 52468.0
1075.0 52468.0
185.0 52470.0
607.0 52470.0
26.0 52471.0
347.0 52471.0
857.0 52471.0
605.0 52472.0
680.0 52472.0
62.0 52473.0
763.0 52473.0
1442.0 52473.0
14.0 52474.0
159.0 52474.0
166.0 52474.0
26.0 52475.0
477.0 52475.0
866.0 52475.0
435.0 52476.0
680.0 52476.0
165.0 52477.0
286.0 52477.0
303.0 52477.0
973.0 52477.0
157.0 52478.0
745.0 52478.0
991.0 52478.0
26.0 52479.0
734.0 52479.0
763.0 52479.0
843.0 52479.0
1222.0 52479.0
1442.0 52479.0
258.0 52480.0
306.0 52480.0
680.0 52480.0
167.0 52481.0
632.0 52481.0
852.0 52481.0
861.0 52481.0
487.0 52482.0
26.0 52483.0
1337.0 52483.0
296.0 52484.0
599.0 52484.0
680.0 52484.0
1088.0 52484.0
428.0 52485.0
696.0 52485.0
744.0 52485.0
763.0 52485.0
959.0 52485.0
1442.0 52485.0
714.0 52486.0
26.0 52487.0
738.0 52487.0
1105.0 52487.0
434.0 52488.0
450.0 52488.0
680.0 52488.0
949.0 52488.0
1345.0 52488.0
224.0 52489.0
347.0 52489.0
623.0 52489.0
718.0 52489.0
227.0 52490.0
558.0 52490.0
1118.0 52490.0
26.0 52491.0
112.0 52491.0
241.0 52491.0
709.0 52491.0
763.0 52491.0
841.0 52491.0
1254.0 52491.0
1442.0 52491.0
680.0 52492.0
1068.0 52492.0
87.0 52493.0
708.0 52493.0
1114.0 52493.0
232.0 52494.0
580.0 52494.0
1204.0 52494.0
1340.0 52494.0
26.0 52495.0
736.0 52495.0
1135.0 52495.0
259.0 52496.0
680.0 52496.0
860.0 52496.0
866.0 52496.0
1087.0 52496.0
1417.0 52496.0
763.0 52497.0
1226.0 52497.0
1442.0 52497.0
185.0 52498.0
334.0 52498.0
456.0 52498.0
607.0 52498.0
26.0 52499.0
680.0 52500.0
62.0 52501.0
599.0 52501.0
14.0 52502.0
159.0 52502.0
166.0 52502.0
591.0 52502.0
26.0 52503.0
303.0 52503.0
366.0 52503.0
477.0 52503.0
763.0 52503.0
842.0 52503.0
1442.0 52503.0
328.0 52504.0
435.0 52504.0
680.0 52504.0
725.0 52504.0
286.0 52505.0
129.0 52506.0
157.0 52506.0
347.0 52506.0
26.0 52507.0
1423.0 52507.0
306.0 52508.0
382.0 52508.0
605.0 52508.0
680.0 52508.0
857.0 52508.0
1442.0 52508.0
165.0 52509.0
296.0 52509.0
763.0 52509.0
167.0 52510.0
217.0 52510.0
26.0 52511.0
680.0 52512.0
1418.0 52512.0
1075.0 52513.0
1442.0 52513.0
428.0 52514.0
734.0 52514.0
950.0 52514.0
26.0 52515.0
450.0 52515.0
763.0 52515.0
941.0 52515.0
680.0 52516.0
718.0 52516.0
866.0 52516.0
973.0 52516.0
434.0 52517.0
843.0 52517.0
558.0 52518.0
632.0 52518.0
709.0 52518.0
991.0 52518.0
1222.0 52518.0
1442.0 52518.0
26.0 52519.0
599.0 52519.0
680.0 52520.0
852.0 52520.0
763.0 52521.0
949.0 52521.0
87.0 52522.0
258.0 52522.0
1105.0 52522.0
1337.0 52522.0
26.0 52523.0
347.0 52523.0
959.0 52523.0
1442.0 52523.0
580.0 52524.0
680.0 52524.0
714.0 52524.0
745.0 52524.0
185.0 52525.0
696.0 52525.0
744.0 52525.0
607.0 52526.0
735.0 52526.0
738.0 52526.0
861.0 52526.0
1345.0 52526.0
26.0 52527.0
763.0 52527.0
1114.0 52527.0
1118.0 52527.0
303.0 52528.0
487.0 52528.0
680.0 52528.0
1088.0 52528.0
1254.0 52528.0
1442.0 52528.0
62.0 52529.0
112.0 52529.0
224.0 52529.0
241.0 52529.0
1068.0 52529.0
14.0 52530.0
159.0 52530.0
166.0 52530.0
1204.0 52530.0
26.0 52531.0
477.0 52531.0
860.0 52531.0
1226.0 52531.0
1340.0 52531.0
435.0 52532.0
680.0 52532.0
736.0 52532.0
232.0 52533.0
763.0 52533.0
1087.0 52533.0
1442.0 52533.0
157.0 52534.0
286.0 52534.0
880.0 52534.0
26.0 52535.0
227.0 52535.0
296.0 52535.0
866.0 52535.0
306.0 52536.0
623.0 52536.0
680.0 52536.0
599.0 52537.0
591.0 52538.0
857.0 52538.0
1012.0 52538.0
1135.0 52538.0
1417.0 52538.0
1442.0 52538.0
26.0 52539.0
763.0 52539.0
167.0 52540.0
334.0 52540.0
347.0 52540.0
842.0 52540.0
165.0 52541.0
259.0 52541.0
450.0 52541.0
680.0 52541.0
718.0 52542.0
26.0 52543.0
1423.0 52543.0
1442.0 52543.0
366.0 52544.0
605.0 52544.0
734.0 52544.0
1172.0 52544.0
428.0 52545.0
680.0 52545.0
763.0 52545.0
129.0 52546.0
456.0 52546.0
558.0 52546.0
709.0 52546.0
1251.0 52546.0
26.0 52547.0
434.0 52548.0
1442.0 52548.0
708.0 52549.0
1165.0 52549.0
26.0 52551.0
680.0 52551.0
763.0 52551.0
217.0 52552.0
1418.0 52552.0
1442.0 52553.0
607.0 52554.0
632.0 52554.0
1156.0 52554.0
26.0 52555.0
1038.0 52555.0
1075.0 52555.0
185.0 52556.0
303.0 52556.0
382.0 52556.0
599.0 52556.0
680.0 52556.0
949.0 52556.0
87.0 52557.0
580.0 52557.0
763.0 52557.0
866.0 52557.0
1105.0 52557.0
328.0 52558.0
347.0 52558.0
1222.0 52558.0
1442.0 52558.0
26.0 52559.0
696.0 52560.0
950.0 52560.0
680.0 52561.0
744.0 52561.0
14.0 52562.0
62.0 52562.0
973.0 52562.0
991.0 52562.0
26.0 52563.0
763.0 52563.0
1337.0 52563.0
1442.0 52563.0
166.0 52564.0
258.0 52564.0
725.0 52564.0
941.0 52564.0
159.0 52565.0
435.0 52565.0
852.0 52565.0
296.0 52566.0
680.0 52566.0
26.0 52567.0
157.0 52567.0
477.0 52567.0
1442.0 52568.0
224.0 52569.0
241.0 52569.0
714.0 52569.0
763.0 52569.0
959.0 52569.0
112.0 52570.0
232.0 52570.0
286.0 52570.0
1226.0 52570.0
26.0 52571.0
306.0 52571.0
680.0 52571.0
745.0 52571.0
1114.0 52571.0
487.0 52572.0
738.0 52572.0
1254.0 52572.0
1442.0 52572.0
1345.0 52573.0
860.0 52574.0
26.0 52575.0
718.0 52575.0
734.0 52575.0
763.0 52575.0
1068.0 52575.0
167.0 52576.0
450.0 52576.0
599.0 52576.0
843.0 52576.0
1001.0 52576.0
1118.0 52576.0
1340.0 52576.0
1390.0 52576.0
1442.0 52576.0
347.0 52577.0
680.0 52577.0
857.0 52577.0
1204.0 52577.0
1404.0 52577.0
623.0 52578.0
866.0 52578.0
26.0 52579.0
736.0 52579.0
558.0 52580.0
1253.0 52580.0
1442.0 52580.0
227.0 52581.0
605.0 52581.0
709.0 52581.0
763.0 52581.0
1016.0 52581.0
1087.0 52581.0
428.0 52582.0
735.0 52582.0
1088.0 52582.0
26.0 52583.0
680.0 52583.0
1442.0 52584.0
165.0 52585.0
259.0 52585.0
366.0 52585.0
334.0 52586.0
26.0 52587.0
129.0 52587.0
763.0 52587.0
880.0 52588.0
1442.0 52588.0
303.0 52589.0
434.0 52589.0
632.0 52589.0
680.0 52589.0
696.0 52590.0
744.0 52590.0
1012.0 52590.0
26.0 52591.0
1423.0 52591.0
607.0 52592.0
1135.0 52592.0
1417.0 52592.0
1442.0 52592.0
763.0 52593.0
185.0 52594.0
217.0 52594.0
842.0 52594.0
1105.0 52594.0
1251.0 52594.0
26.0 52595.0
680.0 52595.0
949.0 52595.0
1172.0 52597.0
1222.0 52597.0
347.0 52598.0
599.0 52598.0
866.0 52599.0
26.0 52600.0
1442.0 52600.0
