14.0 52857.0
14.0 52900.0
14.0 52942.0
14.0 52985.0
14.0 53028.0
14.0 53065.0
14.0 53098.0
14.0 53124.0
14.0 53150.0
14.0 53176.0
26.0 52806.0
26.0 52810.0
26.0 52814.0
26.0 52818.0
26.0 52822.0
26.0 52826.0
26.0 52830.0
26.0 52834.0
26.0 52838.0
26.0 52842.0
26.0 52846.0
26.0 52850.0
26.0 52854.0
26.0 52858.0
26.0 52862.0
26.0 52866.0
26.0 52870.0
26.0 52874.0
26.0 52878.0
26.0 52882.0
26.0 52886.0
26.0 52890.0
26.0 52894.0
26.0 52898.0
26.0 52902.0
26.0 52906.0
26.0 52910.0
26.0 52914.0
26.0 52918.0
26.0 52922.0
26.0 52926.0
26.0 52930.0
26.0 52934.0
26.0 52938.0
26.0 52942.0
26.0 52946.0
26.0 52950.0
26.0 52954.0
26.0 52958.0
26.0 52962.0
26.0 52966.0
26.0 52970.0
26.0 52974.0
26.0 52978.0
26.0 52982.0
26.0 52986.0
26.0 52990.0
26.0 52994.0
26.0 52998.0
26.0 53002.0
26.0 53006.0
26.0 53010.0
26.0 53014.0
26.0 53018.0
26.0 53022.0
26.0 53026.0
26.0 53030.0
26.0 53034.0
26.0 53038.0
26.0 53042.0
26.0 53046.0
26.0 53050.0
26.0 53054.0
26.0 53058.0
26.0 53062.0
26.0 53066.0
26.0 53070.0
26.0 53074.0
26.0 53078.0
26.0 53082.0
26.0 53086.0
26.0 53090.0
26.0 53094.0
26.0 53098.0
26.0 53102.0
26.0 53106.0
26.0 53110.0
26.0 53114.0
26.0 53118.0
26.0 53121.0
26.0 53125.0
26.0 53129.0
26.0 53132.0
26.0 53136.0
26.0 53140.0
26.0 53144.0
26.0 53148.0
26.0 53151.0
26.0 53155.0
26.0 53159.0
26.0 53162.0
26.0 53166.0
26.0 53170.0
26.0 53174.0
26.0 53178.0
26.0 53181.0
26.0 53185.0
26.0 53189.0
26.0 53192.0
26.0 53196.0
62.0 52859.0
62.0 52904.0
62.0 52948.0
62.0 52991.0
62.0 53032.0
62.0 53071.0
62.0 53103.0
62.0 53130.0
62.0 53156.0
62.0 53182.0
87.0 52858.0
87.0 52905.0
87.0 52948.0
87.0 52992.0
87.0 53038.0
87.0 53076.0
87.0 53108.0
87.0 53135.0
87.0 53162.0
87.0 53189.0
112.0 52859.0
112.0 52900.0
112.0 52933.0
112.0 52963.0
112.0 52991.0
112.0 53017.0
112.0 53044.0
112.0 53070.0
112.0 53096.0
112.0 53121.0
112.0 53145.0
112.0 53169.0
112.0 53193.0
129.0 52858.0
129.0 52899.0
129.0 52933.0
129.0 52963.0
129.0 52990.0
129.0 53017.0
129.0 53045.0
129.0 53073.0
129.0 53100.0
129.0 53126.0
129.0 53152.0
129.0 53177.0
157.0 52862.0
157.0 52908.0
157.0 52953.0
157.0 52996.0
157.0 53042.0
157.0 53079.0
157.0 53110.0
157.0 53137.0
157.0 53165.0
157.0 53191.0
159.0 52857.0
159.0 52903.0
159.0 52946.0
159.0 52988.0
159.0 53032.0
159.0 53069.0
159.0 53101.0
159.0 53128.0
159.0 53155.0
159.0 53181.0
165.0 52875.0
165.0 52931.0
165.0 52989.0
165.0 53051.0
165.0 53095.0
165.0 53126.0
165.0 53157.0
165.0 53188.0
166.0 52859.0
166.0 52904.0
166.0 52948.0
166.0 52994.0
166.0 53039.0
166.0 53075.0
166.0 53107.0
166.0 53134.0
166.0 53161.0
166.0 53187.0
167.0 52863.0
167.0 52911.0
167.0 52957.0
167.0 53001.0
167.0 53047.0
167.0 53084.0
167.0 53115.0
167.0 53142.0
167.0 53169.0
167.0 53196.0
185.0 52858.0
185.0 52902.0
185.0 52941.0
185.0 52978.0
185.0 53019.0
185.0 53057.0
185.0 53089.0
185.0 53117.0
185.0 53141.0
185.0 53165.0
185.0 53189.0
217.0 52857.0
217.0 52898.0
217.0 52933.0
217.0 52963.0
217.0 52991.0
217.0 53018.0
217.0 53046.0
217.0 53073.0
217.0 53101.0
217.0 53128.0
217.0 53154.0
217.0 53181.0
224.0 52857.0
224.0 52897.0
224.0 52928.0
224.0 52956.0
224.0 52982.0
224.0 53007.0
224.0 53032.0
224.0 53057.0
224.0 53081.0
224.0 53105.0
224.0 53128.0
224.0 53151.0
224.0 53173.0
224.0 53195.0
227.0 52858.0
227.0 52903.0
227.0 52942.0
227.0 52972.0
227.0 53001.0
227.0 53031.0
227.0 53060.0
227.0 53089.0
227.0 53117.0
227.0 53144.0
227.0 53171.0
227.0 53197.0
232.0 52854.0
232.0 52890.0
232.0 52921.0
232.0 52950.0
232.0 52975.0
232.0 53000.0
232.0 53025.0
232.0 53049.0
232.0 53073.0
232.0 53098.0
232.0 53122.0
232.0 53144.0
232.0 53167.0
232.0 53190.0
241.0 52858.0
241.0 52898.0
241.0 52930.0
241.0 52958.0
241.0 52983.0
241.0 53008.0
241.0 53032.0
241.0 53057.0
241.0 53082.0
241.0 53107.0
241.0 53132.0
241.0 53156.0
241.0 53180.0
258.0 52859.0
258.0 52902.0
258.0 52937.0
258.0 52967.0
258.0 52995.0
258.0 53023.0
258.0 53051.0
258.0 53079.0
258.0 53107.0
258.0 53134.0
258.0 53160.0
258.0 53186.0
259.0 52861.0
259.0 52904.0
259.0 52941.0
259.0 52971.0
259.0 52999.0
259.0 53027.0
259.0 53055.0
259.0 53083.0
259.0 53112.0
259.0 53138.0
259.0 53166.0
259.0 53194.0
286.0 52857.0
286.0 52903.0
286.0 52945.0
286.0 52988.0
286.0 53032.0
286.0 53069.0
286.0 53101.0
286.0 53128.0
286.0 53154.0
286.0 53180.0
296.0 52860.0
296.0 52902.0
296.0 52939.0
296.0 52974.0
296.0 53007.0
296.0 53042.0
296.0 53073.0
296.0 53101.0
296.0 53125.0
296.0 53147.0
296.0 53169.0
296.0 53192.0
303.0 52853.0
303.0 52891.0
303.0 52927.0
303.0 52964.0
303.0 53000.0
303.0 53037.0
303.0 53069.0
303.0 53099.0
303.0 53123.0
303.0 53146.0
303.0 53169.0
303.0 53192.0
306.0 52858.0
306.0 52903.0
306.0 52947.0
306.0 52990.0
306.0 53035.0
306.0 53072.0
306.0 53103.0
306.0 53129.0
306.0 53156.0
306.0 53182.0
328.0 52857.0
328.0 52899.0
328.0 52934.0
328.0 52965.0
328.0 52993.0
328.0 53021.0
328.0 53050.0
328.0 53078.0
328.0 53106.0
328.0 53133.0
328.0 53160.0
328.0 53188.0
334.0 52858.0
334.0 52899.0
334.0 52933.0
334.0 52963.0
334.0 52989.0
334.0 53016.0
334.0 53042.0
334.0 53069.0
334.0 53096.0
334.0 53124.0
334.0 53150.0
334.0 53175.0
334.0 53200.0
347.0 52835.0
347.0 52857.0
347.0 52877.0
347.0 52898.0
347.0 52917.0
347.0 52937.0
347.0 52954.0
347.0 52971.0
347.0 52987.0
347.0 53004.0
347.0 53020.0
347.0 53037.0
347.0 53054.0
347.0 53070.0
347.0 53086.0
347.0 53101.0
347.0 53115.0
347.0 53129.0
347.0 53143.0
347.0 53157.0
347.0 53171.0
347.0 53185.0
347.0 53199.0
366.0 52861.0
366.0 52902.0
366.0 52935.0
366.0 52964.0
366.0 52990.0
366.0 53016.0
366.0 53042.0
366.0 53067.0
366.0 53094.0
366.0 53119.0
366.0 53142.0
366.0 53166.0
366.0 53190.0
382.0 52863.0
382.0 52907.0
382.0 52947.0
382.0 52978.0
382.0 53007.0
382.0 53037.0
382.0 53067.0
382.0 53096.0
382.0 53126.0
382.0 53154.0
382.0 53182.0
428.0 52865.0
428.0 52913.0
428.0 52956.0
428.0 52997.0
428.0 53040.0
428.0 53076.0
428.0 53107.0
428.0 53134.0
428.0 53159.0
428.0 53185.0
434.0 52859.0
434.0 52904.0
434.0 52947.0
434.0 52995.0
434.0 53042.0
434.0 53079.0
434.0 53110.0
434.0 53137.0
434.0 53165.0
434.0 53193.0
435.0 52859.0
435.0 52900.0
435.0 52940.0
435.0 52981.0
435.0 53024.0
435.0 53062.0
435.0 53096.0
435.0 53124.0
435.0 53149.0
435.0 53175.0
435.0 53200.0
450.0 52855.0
450.0 52896.0
450.0 52935.0
450.0 52972.0
450.0 53008.0
450.0 53047.0
450.0 53079.0
450.0 53107.0
450.0 53132.0
450.0 53156.0
450.0 53180.0
456.0 52924.0
456.0 52973.0
456.0 53013.0
456.0 53053.0
456.0 53088.0
456.0 53117.0
456.0 53145.0
456.0 53173.0
477.0 52862.0
477.0 52911.0
477.0 52958.0
477.0 53002.0
477.0 53050.0
477.0 53086.0
477.0 53115.0
477.0 53141.0
477.0 53167.0
477.0 53194.0
487.0 52856.0
487.0 52900.0
487.0 52935.0
487.0 52964.0
487.0 52992.0
487.0 53020.0
487.0 53047.0
487.0 53073.0
487.0 53100.0
487.0 53126.0
487.0 53153.0
487.0 53179.0
558.0 52860.0
558.0 52902.0
558.0 52943.0
558.0 52981.0
558.0 53022.0
558.0 53058.0
558.0 53090.0
558.0 53116.0
558.0 53139.0
558.0 53163.0
558.0 53188.0
580.0 52863.0
580.0 52914.0
580.0 52959.0
580.0 53007.0
580.0 53051.0
580.0 53088.0
580.0 53119.0
580.0 53146.0
580.0 53173.0
580.0 53199.0
591.0 52912.0
591.0 52959.0
591.0 52996.0
591.0 53035.0
591.0 53069.0
591.0 53100.0
591.0 53125.0
591.0 53151.0
591.0 53176.0
599.0 52836.0
599.0 52858.0
599.0 52879.0
599.0 52900.0
599.0 52919.0
599.0 52939.0
599.0 52958.0
599.0 52975.0
599.0 52994.0
599.0 53011.0
599.0 53030.0
599.0 53048.0
599.0 53064.0
599.0 53080.0
599.0 53096.0
599.0 53111.0
599.0 53126.0
599.0 53141.0
599.0 53155.0
599.0 53170.0
599.0 53184.0
599.0 53198.0
605.0 52856.0
605.0 52895.0
605.0 52927.0
605.0 52956.0
605.0 52980.0
605.0 53004.0
605.0 53028.0
605.0 53052.0
605.0 53076.0
605.0 53099.0
605.0 53123.0
605.0 53145.0
605.0 53167.0
605.0 53190.0
607.0 52863.0
607.0 52907.0
607.0 52948.0
607.0 52990.0
607.0 53031.0
607.0 53067.0
607.0 53099.0
607.0 53126.0
607.0 53151.0
607.0 53175.0
607.0 53200.0
623.0 52860.0
623.0 52900.0
623.0 52935.0
623.0 52964.0
623.0 52992.0
623.0 53020.0
623.0 53048.0
623.0 53076.0
623.0 53104.0
623.0 53131.0
623.0 53157.0
623.0 53184.0
632.0 52856.0
632.0 52894.0
632.0 52924.0
632.0 52953.0
632.0 52977.0
632.0 53001.0
632.0 53026.0
632.0 53050.0
632.0 53076.0
632.0 53101.0
632.0 53125.0
632.0 53148.0
632.0 53170.0
632.0 53193.0
680.0 52809.0
680.0 52815.0
680.0 52821.0
680.0 52827.0
680.0 52833.0
680.0 52839.0
680.0 52845.0
680.0 52851.0
680.0 52857.0
680.0 52863.0
680.0 52869.0
680.0 52875.0
680.0 52881.0
680.0 52887.0
680.0 52893.0
680.0 52899.0
680.0 52905.0
680.0 52911.0
680.0 52917.0
680.0 52923.0
680.0 52929.0
680.0 52935.0
680.0 52941.0
680.0 52947.0
680.0 52953.0
680.0 52959.0
680.0 52965.0
680.0 52971.0
680.0 52977.0
680.0 52983.0
680.0 52989.0
680.0 52995.0
680.0 53001.0
680.0 53007.0
680.0 53013.0
680.0 53019.0
680.0 53025.0
680.0 53031.0
680.0 53037.0
680.0 53043.0
680.0 53048.0
680.0 53053.0
680.0 53058.0
680.0 53063.0
680.0 53068.0
680.0 53073.0
680.0 53078.0
680.0 53083.0
680.0 53088.0
680.0 53092.0
680.0 53096.0
680.0 53100.0
680.0 53104.0
680.0 53108.0
680.0 53112.0
680.0 53116.0
680.0 53120.0
680.0 53124.0
680.0 53128.0
680.0 53132.0
680.0 53136.0
680.0 53140.0
680.0 53144.0
680.0 53148.0
680.0 53152.0
680.0 53156.0
680.0 53160.0
680.0 53164.0
680.0 53168.0
680.0 53172.0
680.0 53176.0
680.0 53180.0
680.0 53184.0
680.0 53188.0
680.0 53192.0
680.0 53196.0
696.0 52844.0
696.0 52871.0
696.0 52900.0
696.0 52926.0
696.0 52953.0
696.0 52980.0
696.0 53006.0
696.0 53033.0
696.0 53059.0
696.0 53086.0
696.0 53113.0
696.0 53138.0
696.0 53163.0
696.0 53188.0
708.0 52865.0
708.0 52909.0
708.0 52949.0
708.0 52980.0
708.0 53012.0
708.0 53044.0
708.0 53074.0
708.0 53104.0
708.0 53133.0
708.0 53161.0
708.0 53190.0
709.0 52861.0
709.0 52905.0
709.0 52948.0
709.0 52987.0
709.0 53025.0
709.0 53061.0
709.0 53092.0
709.0 53118.0
709.0 53141.0
709.0 53165.0
709.0 53188.0
714.0 52863.0
714.0 52906.0
714.0 52948.0
714.0 52986.0
714.0 53026.0
714.0 53064.0
714.0 53098.0
714.0 53126.0
714.0 53154.0
714.0 53181.0
718.0 52861.0
718.0 52904.0
718.0 52944.0
718.0 52981.0
718.0 53018.0
718.0 53053.0
718.0 53084.0
718.0 53112.0
718.0 53136.0
718.0 53160.0
718.0 53184.0
725.0 52859.0
725.0 52898.0
725.0 52929.0
725.0 52958.0
725.0 52982.0
725.0 53008.0
725.0 53032.0
725.0 53056.0
725.0 53080.0
725.0 53106.0
725.0 53130.0
725.0 53153.0
725.0 53176.0
725.0 53200.0
734.0 52844.0
734.0 52869.0
734.0 52896.0
734.0 52921.0
734.0 52947.0
734.0 52972.0
734.0 52996.0
734.0 53022.0
734.0 53047.0
734.0 53070.0
734.0 53096.0
734.0 53120.0
734.0 53142.0
734.0 53165.0
734.0 53187.0
735.0 52861.0
735.0 52901.0
735.0 52933.0
735.0 52962.0
735.0 52987.0
735.0 53014.0
735.0 53039.0
735.0 53066.0
735.0 53091.0
735.0 53115.0
735.0 53139.0
735.0 53163.0
735.0 53187.0
736.0 52906.0
736.0 52954.0
736.0 52990.0
736.0 53025.0
736.0 53059.0
736.0 53089.0
736.0 53114.0
736.0 53138.0
736.0 53162.0
736.0 53186.0
738.0 52863.0
738.0 52907.0
738.0 52954.0
738.0 52996.0
738.0 53038.0
738.0 53074.0
738.0 53106.0
738.0 53134.0
738.0 53162.0
738.0 53190.0
744.0 52844.0
744.0 52870.0
744.0 52900.0
744.0 52928.0
744.0 52954.0
744.0 52980.0
744.0 53007.0
744.0 53034.0
744.0 53060.0
744.0 53086.0
744.0 53112.0
744.0 53137.0
744.0 53162.0
744.0 53187.0
745.0 52860.0
745.0 52900.0
745.0 52934.0
745.0 52964.0
745.0 52992.0
745.0 53020.0
745.0 53048.0
745.0 53076.0
745.0 53104.0
745.0 53131.0
745.0 53157.0
745.0 53184.0
763.0 52809.0
763.0 52815.0
763.0 52821.0
763.0 52827.0
763.0 52833.0
763.0 52839.0
763.0 52845.0
763.0 52851.0
763.0 52857.0
763.0 52863.0
763.0 52869.0
763.0 52875.0
763.0 52881.0
763.0 52887.0
763.0 52892.0
763.0 52897.0
763.0 52902.0
763.0 52907.0
763.0 52912.0
763.0 52917.0
763.0 52922.0
763.0 52927.0
763.0 52932.0
763.0 52937.0
763.0 52942.0
763.0 52946.0
763.0 52950.0
763.0 52954.0
763.0 52958.0
763.0 52962.0
763.0 52966.0
763.0 52970.0
763.0 52974.0
763.0 52978.0
763.0 52982.0
763.0 52986.0
763.0 52990.0
763.0 52994.0
763.0 52998.0
763.0 53002.0
763.0 53006.0
763.0 53010.0
763.0 53014.0
763.0 53018.0
763.0 53022.0
763.0 53026.0
763.0 53030.0
763.0 53034.0
763.0 53038.0
763.0 53042.0
763.0 53046.0
763.0 53050.0
763.0 53054.0
763.0 53058.0
763.0 53062.0
763.0 53066.0
763.0 53070.0
763.0 53074.0
763.0 53078.0
763.0 53082.0
763.0 53086.0
763.0 53090.0
763.0 53094.0
763.0 53098.0
763.0 53102.0
763.0 53106.0
763.0 53110.0
763.0 53114.0
763.0 53118.0
763.0 53122.0
763.0 53126.0
763.0 53130.0
763.0 53134.0
763.0 53138.0
763.0 53142.0
763.0 53146.0
763.0 53150.0
763.0 53154.0
763.0 53158.0
763.0 53162.0
763.0 53166.0
763.0 53170.0
763.0 53174.0
763.0 53178.0
763.0 53182.0
763.0 53186.0
763.0 53190.0
763.0 53194.0
841.0 52965.0
841.0 53017.0
841.0 53064.0
841.0 53103.0
841.0 53136.0
841.0 53171.0
842.0 52866.0
842.0 52914.0
842.0 52962.0
842.0 53013.0
842.0 53058.0
842.0 53095.0
842.0 53125.0
842.0 53155.0
842.0 53185.0
843.0 52909.0
843.0 52962.0
843.0 52999.0
843.0 53036.0
843.0 53069.0
843.0 53100.0
843.0 53127.0
843.0 53153.0
843.0 53179.0
852.0 52866.0
852.0 52910.0
852.0 52954.0
852.0 52999.0
852.0 53042.0
852.0 53078.0
852.0 53108.0
852.0 53135.0
852.0 53162.0
852.0 53188.0
857.0 52858.0
857.0 52895.0
857.0 52930.0
857.0 52965.0
857.0 53001.0
857.0 53037.0
857.0 53069.0
857.0 53098.0
857.0 53122.0
857.0 53145.0
857.0 53169.0
857.0 53193.0
860.0 52902.0
860.0 52946.0
860.0 52978.0
860.0 53012.0
860.0 53048.0
860.0 53078.0
860.0 53105.0
860.0 53128.0
860.0 53150.0
860.0 53173.0
860.0 53197.0
861.0 52941.0
861.0 52983.0
861.0 53024.0
861.0 53062.0
861.0 53096.0
861.0 53123.0
861.0 53150.0
861.0 53178.0
866.0 52838.0
866.0 52860.0
866.0 52881.0
866.0 52902.0
866.0 52921.0
866.0 52941.0
866.0 52959.0
866.0 52977.0
866.0 52994.0
866.0 53011.0
866.0 53028.0
866.0 53045.0
866.0 53061.0
866.0 53077.0
866.0 53093.0
866.0 53108.0
866.0 53123.0
866.0 53137.0
866.0 53152.0
866.0 53166.0
866.0 53181.0
866.0 53195.0
880.0 52864.0
880.0 52903.0
880.0 52935.0
880.0 52964.0
880.0 52989.0
880.0 53014.0
880.0 53039.0
880.0 53063.0
880.0 53087.0
880.0 53112.0
880.0 53137.0
880.0 53162.0
880.0 53187.0
941.0 52862.0
941.0 52911.0
941.0 52962.0
941.0 53012.0
941.0 53057.0
941.0 53095.0
941.0 53125.0
941.0 53155.0
941.0 53184.0
949.0 52862.0
949.0 52903.0
949.0 52942.0
949.0 52978.0
949.0 53014.0
949.0 53050.0
949.0 53082.0
949.0 53109.0
949.0 53133.0
949.0 53158.0
949.0 53182.0
950.0 52861.0
950.0 52917.0
950.0 52969.0
950.0 53018.0
950.0 53061.0
950.0 53097.0
950.0 53127.0
950.0 53157.0
950.0 53186.0
959.0 52862.0
959.0 52906.0
959.0 52953.0
959.0 52997.0
959.0 53042.0
959.0 53079.0
959.0 53110.0
959.0 53138.0
959.0 53166.0
959.0 53194.0
973.0 52857.0
973.0 52900.0
973.0 52940.0
973.0 52981.0
973.0 53023.0
973.0 53062.0
973.0 53096.0
973.0 53124.0
973.0 53150.0
973.0 53176.0
991.0 52862.0
991.0 52905.0
991.0 52944.0
991.0 52984.0
991.0 53025.0
991.0 53061.0
991.0 53093.0
991.0 53119.0
991.0 53145.0
991.0 53172.0
991.0 53198.0
1001.0 52864.0
1001.0 52907.0
1001.0 52944.0
1001.0 52974.0
1001.0 53003.0
1001.0 53032.0
1001.0 53061.0
1001.0 53091.0
1001.0 53120.0
1001.0 53150.0
1001.0 53180.0
1012.0 52860.0
1012.0 52900.0
1012.0 52935.0
1012.0 52963.0
1012.0 52989.0
1012.0 53016.0
1012.0 53042.0
1012.0 53068.0
1012.0 53095.0
1012.0 53121.0
1012.0 53148.0
1012.0 53174.0
1012.0 53200.0
1016.0 52865.0
1016.0 52908.0
1016.0 52945.0
1016.0 52974.0
1016.0 53002.0
1016.0 53031.0
1016.0 53060.0
1016.0 53089.0
1016.0 53118.0
1016.0 53146.0
1016.0 53174.0
1038.0 52862.0
1038.0 52902.0
1038.0 52936.0
1038.0 52965.0
1038.0 52993.0
1038.0 53019.0
1038.0 53046.0
1038.0 53074.0
1038.0 53101.0
1038.0 53128.0
1038.0 53154.0
1038.0 53181.0
1068.0 52862.0
1068.0 52908.0
1068.0 52951.0
1068.0 52994.0
1068.0 53035.0
1068.0 53071.0
1068.0 53103.0
1068.0 53131.0
1068.0 53159.0
1068.0 53187.0
1075.0 52862.0
1075.0 52910.0
1075.0 52955.0
1075.0 52999.0
1075.0 53043.0
1075.0 53079.0
1075.0 53110.0
1075.0 53138.0
1075.0 53166.0
1075.0 53194.0
1087.0 52866.0
1087.0 52914.0
1087.0 52961.0
1087.0 53005.0
1087.0 53049.0
1087.0 53085.0
1087.0 53114.0
1087.0 53142.0
1087.0 53169.0
1087.0 53197.0
1088.0 52866.0
1088.0 52914.0
1088.0 52962.0
1088.0 53010.0
1088.0 53053.0
1088.0 53091.0
1088.0 53121.0
1088.0 53150.0
1088.0 53179.0
1105.0 52857.0
1105.0 52893.0
1105.0 52928.0
1105.0 52964.0
1105.0 53000.0
1105.0 53036.0
1105.0 53066.0
1105.0 53094.0
1105.0 53118.0
1105.0 53141.0
1105.0 53165.0
1105.0 53189.0
1114.0 52863.0
1114.0 52906.0
1114.0 52947.0
1114.0 52988.0
1114.0 53027.0
1114.0 53060.0
1114.0 53092.0
1114.0 53117.0
1114.0 53142.0
1114.0 53168.0
1114.0 53194.0
1118.0 52864.0
1118.0 52910.0
1118.0 52952.0
1118.0 52996.0
1118.0 53037.0
1118.0 53073.0
1118.0 53105.0
1118.0 53133.0
1118.0 53161.0
1118.0 53189.0
1135.0 52867.0
1135.0 52918.0
1135.0 52971.0
1135.0 53025.0
1135.0 53069.0
1135.0 53106.0
1135.0 53138.0
1135.0 53168.0
1135.0 53199.0
1156.0 52860.0
1156.0 52901.0
1156.0 52936.0
1156.0 52966.0
1156.0 52993.0
1156.0 53021.0
1156.0 53049.0
1156.0 53076.0
1156.0 53104.0
1156.0 53132.0
1156.0 53160.0
1156.0 53188.0
1165.0 52861.0
1165.0 52901.0
1165.0 52936.0
1165.0 52966.0
1165.0 52994.0
1165.0 53023.0
1165.0 53051.0
1165.0 53078.0
1165.0 53107.0
1165.0 53135.0
1165.0 53163.0
1165.0 53191.0
1172.0 52857.0
1172.0 52897.0
1172.0 52931.0
1172.0 52962.0
1172.0 52990.0
1172.0 53018.0
1172.0 53046.0
1172.0 53074.0
1172.0 53102.0
1172.0 53130.0
1172.0 53158.0
1172.0 53186.0
1204.0 52862.0
1204.0 52909.0
1204.0 52953.0
1204.0 52997.0
1204.0 53042.0
1204.0 53078.0
1204.0 53109.0
1204.0 53137.0
1204.0 53165.0
1204.0 53193.0
1222.0 52860.0
1222.0 52904.0
1222.0 52944.0
1222.0 52984.0
1222.0 53025.0
1222.0 53062.0
1222.0 53094.0
1222.0 53120.0
1222.0 53146.0
1222.0 53171.0
1222.0 53196.0
1226.0 52857.0
1226.0 52897.0
1226.0 52935.0
1226.0 52972.0
1226.0 53008.0
1226.0 53045.0
1226.0 53076.0
1226.0 53104.0
1226.0 53128.0
1226.0 53152.0
1226.0 53176.0
1226.0 53200.0
1251.0 52859.0
1251.0 52902.0
1251.0 52935.0
1251.0 52964.0
1251.0 52991.0
1251.0 53018.0
1251.0 53044.0
1251.0 53070.0
1251.0 53096.0
1251.0 53123.0
1251.0 53150.0
1251.0 53177.0
1253.0 52863.0
1253.0 52907.0
1253.0 52944.0
1253.0 52975.0
1253.0 53005.0
1253.0 53035.0
1253.0 53064.0
1253.0 53095.0
1253.0 53125.0
1253.0 53155.0
1253.0 53185.0
1254.0 52860.0
1254.0 52905.0
1254.0 52947.0
1254.0 52991.0
1254.0 53032.0
1254.0 53069.0
1254.0 53102.0
1254.0 53130.0
1254.0 53158.0
1254.0 53186.0
1337.0 52859.0
1337.0 52903.0
1337.0 52947.0
1337.0 52989.0
1337.0 53031.0
1337.0 53068.0
1337.0 53100.0
1337.0 53127.0
1337.0 53155.0
1337.0 53183.0
1340.0 52862.0
1340.0 52907.0
1340.0 52952.0
1340.0 52995.0
1340.0 53039.0
1340.0 53075.0
1340.0 53106.0
1340.0 53133.0
1340.0 53160.0
1340.0 53187.0
1345.0 52859.0
1345.0 52906.0
1345.0 52954.0
1345.0 53002.0
1345.0 53046.0
1345.0 53084.0
1345.0 53114.0
1345.0 53142.0
1345.0 53170.0
1345.0 53198.0
1390.0 52860.0
1390.0 52903.0
1390.0 52939.0
1390.0 52968.0
1390.0 52996.0
1390.0 53024.0
1390.0 53051.0
1390.0 53078.0
1390.0 53104.0
1390.0 53132.0
1390.0 53160.0
1390.0 53188.0
1404.0 52863.0
1404.0 52905.0
1404.0 52941.0
1404.0 52971.0
1404.0 53000.0
1404.0 53029.0
1404.0 53057.0
1404.0 53085.0
1404.0 53113.0
1404.0 53141.0
1404.0 53169.0
1404.0 53197.0
1417.0 52869.0
1417.0 52924.0
1417.0 52980.0
1417.0 53037.0
1417.0 53080.0
1417.0 53114.0
1417.0 53146.0
1417.0 53178.0
1418.0 52864.0
1418.0 52912.0
1418.0 52956.0
1418.0 53001.0
1418.0 53049.0
1418.0 53085.0
1418.0 53116.0
1418.0 53144.0
1418.0 53173.0
1423.0 52859.0
1423.0 52906.0
1423.0 52953.0
1423.0 53001.0
1423.0 53045.0
1423.0 53081.0
1423.0 53111.0
1423.0 53139.0
1423.0 53167.0
1423.0 53196.0
1442.0 52807.0
1442.0 52812.0
1442.0 52816.0
1442.0 52820.0
1442.0 52824.0
1442.0 52828.0
1442.0 52832.0
1442.0 52836.0
1442.0 52840.0
1442.0 52844.0
1442.0 52848.0
1442.0 52852.0
1442.0 52856.0
1442.0 52860.0
1442.0 52864.0
1442.0 52868.0
1442.0 52872.0
1442.0 52876.0
1442.0 52880.0
1442.0 52884.0
1442.0 52888.0
1442.0 52892.0
1442.0 52896.0
1442.0 52900.0
1442.0 52904.0
1442.0 52908.0
1442.0 52912.0
1442.0 52916.0
1442.0 52920.0
1442.0 52924.0
1442.0 52928.0
1442.0 52932.0
1442.0 52936.0
1442.0 52940.0
1442.0 52944.0
1442.0 52948.0
1442.0 52952.0
1442.0 52956.0
1442.0 52960.0
1442.0 52964.0
1442.0 52968.0
1442.0 52972.0
1442.0 52976.0
1442.0 52980.0
1442.0 52984.0
1442.0 52988.0
1442.0 52992.0
1442.0 52996.0
1442.0 53000.0
1442.0 53004.0
1442.0 53008.0
1442.0 53012.0
1442.0 53016.0
1442.0 53020.0
1442.0 53024.0
1442.0 53028.0
1442.0 53032.0
1442.0 53036.0
1442.0 53040.0
1442.0 53044.0
1442.0 53048.0
1442.0 53052.0
1442.0 53056.0
1442.0 53060.0
1442.0 53064.0
1442.0 53068.0
1442.0 53072.0
1442.0 53076.0
1442.0 53080.0
1442.0 53084.0
1442.0 53088.0
1442.0 53092.0
1442.0 53096.0
1442.0 53100.0
1442.0 53104.0
1442.0 53108.0
1442.0 53112.0
1442.0 53116.0
1442.0 53120.0
1442.0 53124.0
1442.0 53128.0
1442.0 53132.0
1442.0 53136.0
1442.0 53140.0
1442.0 53144.0
1442.0 53148.0
1442.0 53152.0
1442.0 53156.0
1442.0 53160.0
1442.0 53164.0
1442.0 53168.0
1442.0 53172.0
1442.0 53176.0
1442.0 53180.0
1442.0 53184.0
1442.0 53188.0
1442.0 53192.0
1442.0 53196.0
