26.0 53406.0
680.0 53406.0
763.0 53406.0
1442.0 53407.0
26.0 53410.0
680.0 53410.0
763.0 53411.0
1442.0 53412.0
26.0 53414.0
680.0 53414.0
763.0 53416.0
1442.0 53416.0
26.0 53418.0
680.0 53418.0
763.0 53420.0
1442.0 53420.0
26.0 53422.0
680.0 53422.0
763.0 53424.0
1442.0 53424.0
26.0 53425.0
680.0 53426.0
347.0 53428.0
599.0 53428.0
763.0 53428.0
1442.0 53428.0
26.0 53429.0
866.0 53429.0
680.0 53430.0
763.0 53432.0
1442.0 53432.0
26.0 53433.0
680.0 53434.0
26.0 53436.0
763.0 53436.0
1442.0 53436.0
14.0 53438.0
450.0 53438.0
680.0 53438.0
87.0 53439.0
159.0 53439.0
166.0 53439.0
185.0 53439.0
217.0 53439.0
232.0 53439.0
303.0 53439.0
306.0 53439.0
328.0 53439.0
632.0 53439.0
26.0 53440.0
62.0 53440.0
112.0 53440.0
157.0 53440.0
167.0 53440.0
224.0 53440.0
227.0 53440.0
241.0 53440.0
286.0 53440.0
296.0 53440.0
334.0 53440.0
434.0 53440.0
435.0 53440.0
477.0 53440.0
558.0 53440.0
718.0 53440.0
763.0 53440.0
860.0 53440.0
1105.0 53440.0
1442.0 53440.0
129.0 53441.0
165.0 53441.0
258.0 53441.0
259.0 53441.0
366.0 53441.0
382.0 53441.0
428.0 53441.0
487.0 53441.0
580.0 53441.0
605.0 53441.0
607.0 53441.0
709.0 53441.0
736.0 53441.0
973.0 53441.0
1337.0 53441.0
591.0 53442.0
623.0 53442.0
680.0 53442.0
696.0 53442.0
734.0 53442.0
744.0 53442.0
745.0 53442.0
949.0 53442.0
950.0 53442.0
1068.0 53442.0
1172.0 53442.0
1226.0 53442.0
1345.0 53442.0
347.0 53443.0
599.0 53443.0
708.0 53443.0
735.0 53443.0
842.0 53443.0
843.0 53443.0
852.0 53443.0
941.0 53443.0
959.0 53443.0
991.0 53443.0
1012.0 53443.0
1038.0 53443.0
1075.0 53443.0
1088.0 53443.0
1114.0 53443.0
1118.0 53443.0
1156.0 53443.0
1165.0 53443.0
1251.0 53443.0
1254.0 53443.0
1340.0 53443.0
1390.0 53443.0
1423.0 53443.0
26.0 53444.0
456.0 53444.0
714.0 53444.0
738.0 53444.0
763.0 53444.0
857.0 53444.0
861.0 53444.0
1001.0 53444.0
1135.0 53444.0
1204.0 53444.0
1222.0 53444.0
1417.0 53444.0
1418.0 53444.0
1442.0 53444.0
725.0 53445.0
841.0 53445.0
866.0 53445.0
1087.0 53445.0
1253.0 53445.0
680.0 53446.0
880.0 53446.0
1016.0 53446.0
1404.0 53446.0
26.0 53448.0
763.0 53448.0
1442.0 53448.0
680.0 53450.0
26.0 53452.0
763.0 53452.0
1442.0 53452.0
680.0 53454.0
26.0 53455.0
763.0 53456.0
1442.0 53456.0
347.0 53457.0
599.0 53457.0
680.0 53458.0
26.0 53459.0
866.0 53459.0
763.0 53460.0
1442.0 53460.0
232.0 53462.0
303.0 53462.0
450.0 53462.0
632.0 53462.0
680.0 53462.0
26.0 53463.0
241.0 53463.0
860.0 53463.0
14.0 53464.0
112.0 53464.0
185.0 53464.0
224.0 53464.0
296.0 53464.0
605.0 53464.0
718.0 53464.0
763.0 53464.0
1105.0 53464.0
1442.0 53464.0
166.0 53465.0
217.0 53465.0
366.0 53465.0
435.0 53465.0
558.0 53465.0
709.0 53465.0
26.0 53466.0
62.0 53466.0
87.0 53466.0
159.0 53466.0
286.0 53466.0
306.0 53466.0
328.0 53466.0
334.0 53466.0
607.0 53466.0
680.0 53466.0
734.0 53466.0
129.0 53467.0
157.0 53467.0
227.0 53467.0
477.0 53467.0
591.0 53467.0
696.0 53467.0
736.0 53467.0
744.0 53467.0
949.0 53467.0
1226.0 53467.0
167.0 53468.0
258.0 53468.0
259.0 53468.0
428.0 53468.0
434.0 53468.0
487.0 53468.0
623.0 53468.0
735.0 53468.0
745.0 53468.0
763.0 53468.0
973.0 53468.0
1114.0 53468.0
1337.0 53468.0
1442.0 53468.0
382.0 53469.0
580.0 53469.0
857.0 53469.0
1172.0 53469.0
26.0 53470.0
680.0 53470.0
725.0 53470.0
843.0 53470.0
852.0 53470.0
1038.0 53470.0
1068.0 53470.0
1251.0 53470.0
1345.0 53470.0
165.0 53471.0
347.0 53471.0
599.0 53471.0
708.0 53471.0
714.0 53471.0
861.0 53471.0
959.0 53471.0
991.0 53471.0
1012.0 53471.0
1075.0 53471.0
1118.0 53471.0
1156.0 53471.0
1165.0 53471.0
1222.0 53471.0
1340.0 53471.0
1390.0 53471.0
456.0 53472.0
738.0 53472.0
763.0 53472.0
880.0 53472.0
1204.0 53472.0
1254.0 53472.0
1423.0 53472.0
1442.0 53472.0
842.0 53473.0
866.0 53473.0
941.0 53473.0
950.0 53473.0
1087.0 53473.0
1088.0 53473.0
1418.0 53473.0
26.0 53474.0
680.0 53474.0
1001.0 53474.0
1404.0 53474.0
1016.0 53475.0
1135.0 53475.0
1253.0 53475.0
763.0 53476.0
1417.0 53476.0
1442.0 53476.0
26.0 53478.0
680.0 53478.0
841.0 53478.0
763.0 53480.0
1442.0 53480.0
26.0 53482.0
680.0 53482.0
763.0 53484.0
1442.0 53484.0
26.0 53485.0
232.0 53485.0
303.0 53485.0
347.0 53485.0
599.0 53485.0
632.0 53485.0
860.0 53485.0
241.0 53486.0
680.0 53486.0
224.0 53487.0
296.0 53487.0
450.0 53487.0
605.0 53487.0
1105.0 53487.0
112.0 53488.0
185.0 53488.0
718.0 53488.0
763.0 53488.0
866.0 53488.0
1442.0 53488.0
26.0 53489.0
366.0 53489.0
558.0 53489.0
709.0 53489.0
734.0 53489.0
14.0 53490.0
217.0 53490.0
435.0 53490.0
607.0 53490.0
680.0 53490.0
62.0 53491.0
166.0 53491.0
334.0 53491.0
949.0 53491.0
87.0 53492.0
129.0 53492.0
159.0 53492.0
286.0 53492.0
306.0 53492.0
591.0 53492.0
696.0 53492.0
735.0 53492.0
736.0 53492.0
744.0 53492.0
763.0 53492.0
1226.0 53492.0
1442.0 53492.0
26.0 53493.0
157.0 53493.0
227.0 53493.0
328.0 53493.0
477.0 53493.0
857.0 53493.0
1114.0 53493.0
258.0 53494.0
428.0 53494.0
623.0 53494.0
680.0 53494.0
725.0 53494.0
745.0 53494.0
973.0 53494.0
167.0 53495.0
259.0 53495.0
434.0 53495.0
487.0 53495.0
763.0 53496.0
1038.0 53496.0
1337.0 53496.0
1442.0 53496.0
26.0 53497.0
382.0 53497.0
580.0 53497.0
843.0 53497.0
1012.0 53497.0
1172.0 53497.0
1222.0 53497.0
680.0 53498.0
714.0 53498.0
852.0 53498.0
861.0 53498.0
880.0 53498.0
991.0 53498.0
1068.0 53498.0
1251.0 53498.0
1345.0 53498.0
347.0 53499.0
456.0 53499.0
959.0 53499.0
1075.0 53499.0
1118.0 53499.0
1156.0 53499.0
1165.0 53499.0
1340.0 53499.0
1390.0 53499.0
599.0 53500.0
708.0 53500.0
738.0 53500.0
763.0 53500.0
1204.0 53500.0
1254.0 53500.0
1442.0 53500.0
26.0 53501.0
1087.0 53501.0
1423.0 53501.0
680.0 53502.0
842.0 53502.0
866.0 53502.0
1088.0 53502.0
1404.0 53502.0
1418.0 53502.0
165.0 53503.0
941.0 53503.0
1001.0 53503.0
1016.0 53503.0
763.0 53504.0
1442.0 53504.0
26.0 53505.0
950.0 53505.0
1135.0 53505.0
1253.0 53505.0
680.0 53506.0
232.0 53508.0
303.0 53508.0
632.0 53508.0
763.0 53508.0
860.0 53508.0
1417.0 53508.0
1442.0 53508.0
26.0 53509.0
241.0 53510.0
296.0 53510.0
605.0 53510.0
680.0 53510.0
841.0 53510.0
1105.0 53510.0
224.0 53511.0
450.0 53512.0
718.0 53512.0
734.0 53512.0
763.0 53512.0
1442.0 53512.0
26.0 53513.0
347.0 53513.0
366.0 53513.0
558.0 53513.0
709.0 53513.0
112.0 53514.0
680.0 53514.0
185.0 53515.0
599.0 53515.0
949.0 53515.0
435.0 53516.0
607.0 53516.0
735.0 53516.0
763.0 53516.0
1226.0 53516.0
1442.0 53516.0
14.0 53517.0
26.0 53517.0
217.0 53517.0
591.0 53517.0
736.0 53517.0
857.0 53517.0
866.0 53517.0
334.0 53518.0
680.0 53518.0
725.0 53518.0
62.0 53519.0
129.0 53519.0
166.0 53519.0
286.0 53519.0
306.0 53519.0
696.0 53519.0
744.0 53519.0
1114.0 53519.0
157.0 53520.0
159.0 53520.0
745.0 53520.0
763.0 53520.0
973.0 53520.0
1442.0 53520.0
26.0 53521.0
87.0 53521.0
227.0 53521.0
428.0 53521.0
477.0 53521.0
623.0 53521.0
258.0 53522.0
328.0 53522.0
680.0 53522.0
167.0 53523.0
434.0 53523.0
487.0 53523.0
880.0 53523.0
1038.0 53523.0
259.0 53524.0
714.0 53524.0
763.0 53524.0
843.0 53524.0
991.0 53524.0
1012.0 53524.0
1222.0 53524.0
1251.0 53524.0
1337.0 53524.0
1442.0 53524.0
26.0 53525.0
861.0 53525.0
1172.0 53525.0
382.0 53526.0
580.0 53526.0
680.0 53526.0
852.0 53526.0
1068.0 53526.0
1345.0 53526.0
456.0 53527.0
738.0 53527.0
959.0 53527.0
1075.0 53527.0
1118.0 53527.0
1156.0 53527.0
1165.0 53527.0
1340.0 53527.0
1390.0 53527.0
347.0 53528.0
763.0 53528.0
1204.0 53528.0
1254.0 53528.0
1442.0 53528.0
26.0 53529.0
1087.0 53529.0
599.0 53530.0
680.0 53530.0
1404.0 53530.0
708.0 53531.0
860.0 53531.0
1016.0 53531.0
1088.0 53531.0
1423.0 53531.0
232.0 53532.0
303.0 53532.0
763.0 53532.0
866.0 53532.0
1001.0 53532.0
1418.0 53532.0
1442.0 53532.0
26.0 53533.0
632.0 53533.0
842.0 53533.0
1105.0 53533.0
241.0 53534.0
296.0 53534.0
605.0 53534.0
680.0 53534.0
941.0 53534.0
165.0 53535.0
224.0 53535.0
734.0 53535.0
950.0 53535.0
1253.0 53535.0
763.0 53536.0
1135.0 53536.0
1442.0 53536.0
26.0 53537.0
718.0 53537.0
366.0 53538.0
450.0 53538.0
680.0 53538.0
709.0 53538.0
112.0 53539.0
558.0 53539.0
949.0 53539.0
763.0 53540.0
1226.0 53540.0
1417.0 53540.0
1442.0 53540.0
26.0 53541.0
185.0 53541.0
735.0 53541.0
857.0 53541.0
347.0 53542.0
435.0 53542.0
591.0 53542.0
607.0 53542.0
680.0 53542.0
725.0 53542.0
736.0 53542.0
841.0 53542.0
1114.0 53543.0
14.0 53544.0
599.0 53544.0
763.0 53544.0
1442.0 53544.0
26.0 53545.0
217.0 53545.0
334.0 53545.0
129.0 53546.0
306.0 53546.0
680.0 53546.0
696.0 53546.0
744.0 53546.0
973.0 53546.0
62.0 53547.0
166.0 53547.0
286.0 53547.0
623.0 53547.0
745.0 53547.0
866.0 53547.0
880.0 53547.0
157.0 53548.0
159.0 53548.0
428.0 53548.0
763.0 53548.0
1442.0 53548.0
26.0 53549.0
87.0 53549.0
227.0 53549.0
1222.0 53549.0
258.0 53550.0
477.0 53550.0
680.0 53550.0
714.0 53550.0
843.0 53550.0
1012.0 53550.0
1038.0 53550.0
1251.0 53550.0
167.0 53551.0
434.0 53551.0
487.0 53551.0
991.0 53551.0
259.0 53552.0
328.0 53552.0
763.0 53552.0
861.0 53552.0
1337.0 53552.0
1442.0 53552.0
26.0 53553.0
1172.0 53553.0
680.0 53554.0
738.0 53554.0
852.0 53554.0
860.0 53554.0
1068.0 53554.0
1345.0 53554.0
456.0 53555.0
580.0 53555.0
959.0 53555.0
1075.0 53555.0
1118.0 53555.0
1156.0 53555.0
1165.0 53555.0
1340.0 53555.0
1390.0 53555.0
303.0 53556.0
347.0 53556.0
382.0 53556.0
763.0 53556.0
1204.0 53556.0
1254.0 53556.0
1442.0 53556.0
26.0 53557.0
232.0 53557.0
1087.0 53557.0
241.0 53558.0
296.0 53558.0
605.0 53558.0
632.0 53558.0
680.0 53558.0
1105.0 53558.0
1404.0 53558.0
224.0 53559.0
599.0 53559.0
734.0 53559.0
1016.0 53559.0
763.0 53560.0
1001.0 53560.0
1423.0 53560.0
1442.0 53560.0
26.0 53561.0
866.0 53561.0
1088.0 53561.0
1418.0 53561.0
680.0 53562.0
842.0 53562.0
366.0 53563.0
450.0 53563.0
708.0 53563.0
709.0 53563.0
718.0 53563.0
949.0 53563.0
112.0 53564.0
558.0 53564.0
763.0 53564.0
941.0 53564.0
1226.0 53564.0
1253.0 53564.0
1442.0 53564.0
26.0 53565.0
857.0 53565.0
950.0 53565.0
680.0 53566.0
725.0 53566.0
735.0 53566.0
591.0 53567.0
736.0 53567.0
1114.0 53567.0
165.0 53568.0
185.0 53568.0
607.0 53568.0
763.0 53568.0
1135.0 53568.0
1442.0 53568.0
26.0 53569.0
347.0 53570.0
435.0 53570.0
680.0 53570.0
880.0 53571.0
14.0 53572.0
334.0 53572.0
696.0 53572.0
744.0 53572.0
763.0 53572.0
973.0 53572.0
1417.0 53572.0
1442.0 53572.0
26.0 53573.0
129.0 53573.0
217.0 53573.0
306.0 53574.0
599.0 53574.0
623.0 53574.0
680.0 53574.0
745.0 53574.0
841.0 53574.0
62.0 53575.0
159.0 53575.0
166.0 53575.0
286.0 53575.0
1222.0 53575.0
157.0 53576.0
428.0 53576.0
714.0 53576.0
763.0 53576.0
866.0 53576.0
1012.0 53576.0
1038.0 53576.0
1251.0 53576.0
1442.0 53576.0
26.0 53577.0
87.0 53577.0
227.0 53577.0
843.0 53577.0
860.0 53577.0
991.0 53577.0
258.0 53578.0
477.0 53578.0
680.0 53578.0
167.0 53579.0
434.0 53579.0
487.0 53579.0
861.0 53579.0
1337.0 53579.0
259.0 53580.0
303.0 53580.0
763.0 53580.0
1442.0 53580.0
26.0 53581.0
738.0 53581.0
852.0 53581.0
1172.0 53581.0
232.0 53582.0
241.0 53582.0
296.0 53582.0
328.0 53582.0
605.0 53582.0
680.0 53582.0
1068.0 53582.0
1345.0 53582.0
1390.0 53582.0
456.0 53583.0
632.0 53583.0
734.0 53583.0
959.0 53583.0
1075.0 53583.0
1105.0 53583.0
1118.0 53583.0
1156.0 53583.0
1165.0 53583.0
1340.0 53583.0
224.0 53584.0
347.0 53584.0
763.0 53584.0
1204.0 53584.0
1254.0 53584.0
1442.0 53584.0
26.0 53585.0
580.0 53585.0
1087.0 53585.0
382.0 53586.0
680.0 53586.0
1404.0 53586.0
709.0 53587.0
949.0 53587.0
1016.0 53587.0
718.0 53588.0
763.0 53588.0
1442.0 53588.0
26.0 53589.0
366.0 53589.0
450.0 53589.0
558.0 53589.0
599.0 53589.0
857.0 53589.0
1001.0 53589.0
1226.0 53589.0
1423.0 53589.0
112.0 53590.0
680.0 53590.0
725.0 53590.0
735.0 53590.0
866.0 53590.0
1088.0 53590.0
1418.0 53590.0
591.0 53591.0
1114.0 53591.0
736.0 53592.0
763.0 53592.0
1442.0 53592.0
26.0 53593.0
842.0 53593.0
1253.0 53593.0
607.0 53594.0
680.0 53594.0
708.0 53594.0
941.0 53594.0
185.0 53595.0
880.0 53595.0
950.0 53595.0
763.0 53596.0
1442.0 53596.0
26.0 53597.0
347.0 53598.0
435.0 53598.0
680.0 53598.0
744.0 53598.0
973.0 53598.0
334.0 53599.0
696.0 53599.0
14.0 53600.0
129.0 53600.0
165.0 53600.0
217.0 53600.0
763.0 53600.0
860.0 53600.0
1135.0 53600.0
1442.0 53600.0
26.0 53601.0
745.0 53601.0
1222.0 53601.0
306.0 53602.0
623.0 53602.0
680.0 53602.0
714.0 53602.0
1012.0 53602.0
1038.0 53602.0
1251.0 53602.0
62.0 53603.0
159.0 53603.0
166.0 53603.0
286.0 53603.0
843.0 53603.0
991.0 53603.0
157.0 53604.0
303.0 53604.0
428.0 53604.0
599.0 53604.0
763.0 53604.0
1417.0 53604.0
1442.0 53604.0
26.0 53605.0
87.0 53605.0
227.0 53605.0
866.0 53605.0
232.0 53606.0
258.0 53606.0
296.0 53606.0
477.0 53606.0
605.0 53606.0
680.0 53606.0
841.0 53606.0
167.0 53607.0
241.0 53607.0
434.0 53607.0
487.0 53607.0
734.0 53607.0
852.0 53607.0
861.0 53607.0
1105.0 53607.0
1337.0 53607.0
259.0 53608.0
632.0 53608.0
763.0 53608.0
1442.0 53608.0
26.0 53609.0
738.0 53609.0
1068.0 53609.0
1172.0 53609.0
224.0 53610.0
680.0 53610.0
1345.0 53610.0
1390.0 53610.0
456.0 53611.0
959.0 53611.0
1075.0 53611.0
1156.0 53611.0
1165.0 53611.0
1340.0 53611.0
328.0 53612.0
347.0 53612.0
709.0 53612.0
763.0 53612.0
949.0 53612.0
1118.0 53612.0
1254.0 53612.0
1442.0 53612.0
26.0 53613.0
857.0 53613.0
1087.0 53613.0
1204.0 53613.0
450.0 53614.0
558.0 53614.0
580.0 53614.0
680.0 53614.0
718.0 53614.0
725.0 53614.0
735.0 53614.0
1226.0 53614.0
1404.0 53614.0
112.0 53615.0
366.0 53615.0
382.0 53615.0
591.0 53615.0
1016.0 53615.0
736.0 53616.0
763.0 53616.0
1114.0 53616.0
1442.0 53616.0
26.0 53617.0
1423.0 53617.0
680.0 53618.0
1001.0 53618.0
599.0 53619.0
880.0 53619.0
607.0 53620.0
763.0 53620.0
866.0 53620.0
1418.0 53620.0
1442.0 53620.0
26.0 53621.0
185.0 53621.0
1088.0 53621.0
680.0 53622.0
842.0 53623.0
860.0 53623.0
1253.0 53623.0
744.0 53624.0
763.0 53624.0
1442.0 53624.0
26.0 53625.0
708.0 53625.0
941.0 53625.0
950.0 53625.0
973.0 53625.0
334.0 53626.0
347.0 53626.0
435.0 53626.0
680.0 53626.0
696.0 53626.0
129.0 53627.0
217.0 53627.0
1038.0 53627.0
14.0 53628.0
303.0 53628.0
714.0 53628.0
745.0 53628.0
763.0 53628.0
1012.0 53628.0
1222.0 53628.0
1251.0 53628.0
1442.0 53628.0
26.0 53629.0
991.0 53629.0
232.0 53630.0
296.0 53630.0
306.0 53630.0
605.0 53630.0
623.0 53630.0
680.0 53630.0
843.0 53630.0
62.0 53631.0
159.0 53631.0
165.0 53631.0
166.0 53631.0
286.0 53631.0
734.0 53631.0
1105.0 53631.0
1135.0 53631.0
157.0 53632.0
241.0 53632.0
428.0 53632.0
632.0 53632.0
763.0 53632.0
1442.0 53632.0
87.0 53633.0
227.0 53633.0
26.0 53634.0
258.0 53634.0
477.0 53634.0
599.0 53634.0
680.0 53634.0
852.0 53634.0
866.0 53634.0
434.0 53635.0
487.0 53635.0
861.0 53635.0
1337.0 53635.0
167.0 53636.0
224.0 53636.0
738.0 53636.0
763.0 53636.0
857.0 53636.0
1068.0 53636.0
1417.0 53636.0
1442.0 53636.0
259.0 53637.0
1172.0 53637.0
680.0 53638.0
709.0 53638.0
725.0 53638.0
841.0 53638.0
949.0 53638.0
1345.0 53638.0
1390.0 53638.0
26.0 53639.0
456.0 53639.0
591.0 53639.0
735.0 53639.0
959.0 53639.0
1075.0 53639.0
1156.0 53639.0
1165.0 53639.0
1226.0 53639.0
1254.0 53639.0
1340.0 53639.0
450.0 53640.0
558.0 53640.0
718.0 53640.0
736.0 53640.0
763.0 53640.0
1118.0 53640.0
1442.0 53640.0
347.0 53641.0
366.0 53641.0
1087.0 53641.0
1204.0 53641.0
680.0 53642.0
1404.0 53642.0
880.0 53643.0
1016.0 53643.0
1114.0 53643.0
112.0 53644.0
763.0 53644.0
1442.0 53644.0
26.0 53645.0
580.0 53645.0
860.0 53645.0
1423.0 53645.0
680.0 53646.0
328.0 53648.0
382.0 53648.0
763.0 53648.0
1001.0 53648.0
1442.0 53648.0
607.0 53649.0
866.0 53649.0
1418.0 53649.0
26.0 53650.0
599.0 53650.0
680.0 53650.0
1088.0 53650.0
763.0 53652.0
973.0 53652.0
1442.0 53652.0
185.0 53653.0
842.0 53653.0
1038.0 53653.0
1253.0 53653.0
680.0 53654.0
714.0 53654.0
744.0 53654.0
941.0 53654.0
950.0 53654.0
1105.0 53654.0
1222.0 53654.0
1251.0 53654.0
26.0 53655.0
991.0 53655.0
1012.0 53655.0
763.0 53656.0
1442.0 53656.0
303.0 53657.0
347.0 53657.0
843.0 53657.0
680.0 53658.0
696.0 53658.0
217.0 53659.0
232.0 53659.0
334.0 53659.0
26.0 53660.0
435.0 53660.0
605.0 53660.0
763.0 53660.0
852.0 53660.0
857.0 53660.0
1442.0 53660.0
296.0 53661.0
241.0 53662.0
632.0 53662.0
680.0 53662.0
734.0 53662.0
745.0 53662.0
1135.0 53662.0
14.0 53663.0
129.0 53663.0
623.0 53663.0
708.0 53663.0
725.0 53663.0
738.0 53663.0
949.0 53663.0
1068.0 53663.0
1337.0 53663.0
306.0 53664.0
591.0 53664.0
735.0 53664.0
763.0 53664.0
861.0 53664.0
866.0 53664.0
1226.0 53664.0
1442.0 53664.0
26.0 53665.0
1172.0 53665.0
1390.0 53665.0
62.0 53666.0
159.0 53666.0
286.0 53666.0
680.0 53666.0
736.0 53666.0
1345.0 53666.0
166.0 53667.0
224.0 53667.0
456.0 53667.0
599.0 53667.0
1075.0 53667.0
1156.0 53667.0
1165.0 53667.0
1254.0 53667.0
1340.0 53667.0
157.0 53668.0
428.0 53668.0
763.0 53668.0
860.0 53668.0
959.0 53668.0
1417.0 53668.0
1442.0 53668.0
87.0 53669.0
1087.0 53669.0
1114.0 53669.0
1118.0 53669.0
1204.0 53669.0
26.0 53670.0
227.0 53670.0
258.0 53670.0
680.0 53670.0
841.0 53670.0
880.0 53670.0
1404.0 53670.0
434.0 53671.0
450.0 53671.0
487.0 53671.0
709.0 53671.0
718.0 53671.0
1442.0 53671.0
477.0 53672.0
558.0 53672.0
763.0 53672.0
1016.0 53672.0
347.0 53673.0
366.0 53673.0
1423.0 53673.0
680.0 53674.0
26.0 53675.0
167.0 53675.0
1442.0 53675.0
165.0 53676.0
259.0 53676.0
763.0 53676.0
1001.0 53676.0
1105.0 53676.0
112.0 53677.0
973.0 53677.0
1418.0 53677.0
680.0 53678.0
866.0 53678.0
1038.0 53678.0
1088.0 53678.0
1222.0 53679.0
1251.0 53679.0
1442.0 53679.0
26.0 53680.0
607.0 53680.0
714.0 53680.0
763.0 53680.0
991.0 53680.0
1012.0 53680.0
580.0 53682.0
680.0 53682.0
842.0 53682.0
950.0 53682.0
1253.0 53682.0
1442.0 53682.0
599.0 53683.0
843.0 53683.0
941.0 53683.0
763.0 53684.0
857.0 53684.0
26.0 53685.0
328.0 53685.0
382.0 53685.0
744.0 53685.0
852.0 53685.0
680.0 53686.0
725.0 53686.0
949.0 53686.0
1442.0 53686.0
185.0 53687.0
303.0 53688.0
696.0 53688.0
735.0 53688.0
763.0 53688.0
1226.0 53688.0
347.0 53689.0
591.0 53689.0
734.0 53689.0
738.0 53689.0
1068.0 53689.0
1337.0 53689.0
26.0 53690.0
232.0 53690.0
605.0 53690.0
680.0 53690.0
1135.0 53690.0
1390.0 53690.0
1442.0 53690.0
296.0 53691.0
632.0 53691.0
1172.0 53691.0
241.0 53692.0
736.0 53692.0
763.0 53692.0
860.0 53692.0
861.0 53692.0
866.0 53692.0
1156.0 53692.0
1345.0 53692.0
217.0 53693.0
334.0 53693.0
1114.0 53693.0
1254.0 53693.0
1340.0 53693.0
435.0 53694.0
456.0 53694.0
680.0 53694.0
880.0 53694.0
1075.0 53694.0
1442.0 53694.0
26.0 53695.0
959.0 53695.0
1087.0 53695.0
1118.0 53695.0
1165.0 53695.0
1204.0 53695.0
745.0 53696.0
763.0 53696.0
1404.0 53696.0
14.0 53697.0
224.0 53697.0
623.0 53697.0
680.0 53698.0
1417.0 53698.0
1442.0 53698.0
129.0 53699.0
306.0 53699.0
1016.0 53699.0
1105.0 53699.0
26.0 53700.0
62.0 53700.0
599.0 53700.0
763.0 53700.0
1423.0 53700.0
428.0 53701.0
1442.0 53701.0
159.0 53702.0
286.0 53702.0
450.0 53702.0
680.0 53702.0
708.0 53702.0
718.0 53702.0
973.0 53702.0
157.0 53703.0
166.0 53703.0
1038.0 53703.0
87.0 53704.0
347.0 53704.0
366.0 53704.0
558.0 53704.0
763.0 53704.0
991.0 53704.0
1001.0 53704.0
1222.0 53704.0
1251.0 53704.0
26.0 53705.0
227.0 53705.0
258.0 53705.0
487.0 53705.0
841.0 53705.0
1012.0 53705.0
1418.0 53705.0
1442.0 53705.0
680.0 53706.0
709.0 53706.0
714.0 53706.0
857.0 53706.0
866.0 53706.0
1088.0 53706.0
434.0 53707.0
725.0 53708.0
763.0 53708.0
843.0 53708.0
477.0 53709.0
1442.0 53709.0
26.0 53710.0
842.0 53710.0
852.0 53710.0
949.0 53710.0
950.0 53710.0
112.0 53711.0
680.0 53711.0
941.0 53711.0
1226.0 53711.0
167.0 53712.0
259.0 53712.0
607.0 53712.0
735.0 53712.0
763.0 53712.0
1253.0 53712.0
1442.0 53712.0
26.0 53715.0
591.0 53715.0
680.0 53715.0
744.0 53715.0
1068.0 53715.0
1337.0 53715.0
599.0 53716.0
734.0 53716.0
763.0 53716.0
860.0 53716.0
1390.0 53716.0
1442.0 53716.0
738.0 53717.0
1114.0 53717.0
1156.0 53717.0
1172.0 53717.0
696.0 53718.0
736.0 53718.0
880.0 53718.0
1135.0 53719.0
1340.0 53719.0
1345.0 53719.0
26.0 53720.0
303.0 53720.0
763.0 53720.0
861.0 53720.0
1254.0 53720.0
1442.0 53720.0
165.0 53721.0
185.0 53721.0
347.0 53721.0
605.0 53721.0
632.0 53721.0
680.0 53721.0
866.0 53721.0
1118.0 53721.0
232.0 53722.0
241.0 53722.0
382.0 53722.0
456.0 53722.0
1075.0 53722.0
1165.0 53722.0
1204.0 53722.0
1404.0 53722.0
328.0 53723.0
763.0 53723.0
959.0 53723.0
1105.0 53723.0
1087.0 53724.0
1442.0 53724.0
26.0 53725.0
296.0 53725.0
334.0 53726.0
680.0 53726.0
1016.0 53726.0
224.0 53727.0
763.0 53727.0
1038.0 53727.0
217.0 53728.0
1442.0 53728.0
623.0 53729.0
745.0 53729.0
1251.0 53729.0
26.0 53730.0
580.0 53730.0
725.0 53730.0
1012.0 53730.0
680.0 53731.0
763.0 53731.0
973.0 53731.0
1001.0 53731.0
1442.0 53731.0
857.0 53732.0
1423.0 53732.0
129.0 53733.0
366.0 53733.0
599.0 53733.0
991.0 53733.0
1222.0 53733.0
1417.0 53733.0
763.0 53734.0
26.0 53735.0
714.0 53735.0
735.0 53735.0
1442.0 53735.0
435.0 53736.0
680.0 53736.0
866.0 53736.0
258.0 53737.0
487.0 53737.0
347.0 53738.0
763.0 53738.0
843.0 53738.0
949.0 53738.0
1418.0 53738.0
227.0 53739.0
1226.0 53739.0
1253.0 53739.0
1442.0 53739.0
26.0 53740.0
450.0 53740.0
708.0 53740.0
1088.0 53740.0
1390.0 53740.0
680.0 53741.0
718.0 53741.0
841.0 53741.0
852.0 53741.0
880.0 53741.0
1156.0 53741.0
1172.0 53741.0
14.0 53742.0
112.0 53742.0
763.0 53742.0
860.0 53742.0
1442.0 53742.0
591.0 53744.0
26.0 53745.0
734.0 53745.0
744.0 53745.0
941.0 53745.0
950.0 53745.0
259.0 53746.0
306.0 53746.0
680.0 53746.0
709.0 53746.0
763.0 53746.0
1114.0 53746.0
1337.0 53746.0
1442.0 53746.0
62.0 53747.0
736.0 53747.0
842.0 53747.0
1165.0 53747.0
1404.0 53747.0
428.0 53748.0
558.0 53748.0
696.0 53748.0
738.0 53748.0
1068.0 53748.0
232.0 53749.0
241.0 53749.0
632.0 53749.0
763.0 53749.0
26.0 53750.0
605.0 53750.0
1105.0 53750.0
1442.0 53750.0
157.0 53751.0
159.0 53751.0
599.0 53751.0
680.0 53751.0
861.0 53751.0
1038.0 53751.0
1340.0 53751.0
166.0 53752.0
725.0 53752.0
866.0 53752.0
1016.0 53752.0
1254.0 53752.0
1345.0 53752.0
763.0 53753.0
1012.0 53753.0
1251.0 53753.0
224.0 53754.0
1118.0 53754.0
1135.0 53754.0
1442.0 53754.0
26.0 53755.0
347.0 53755.0
382.0 53755.0
456.0 53755.0
1075.0 53755.0
1087.0 53755.0
328.0 53756.0
334.0 53756.0
434.0 53756.0
680.0 53756.0
763.0 53756.0
959.0 53756.0
1204.0 53756.0
735.0 53757.0
1001.0 53757.0
623.0 53758.0
1442.0 53758.0
87.0 53759.0
217.0 53759.0
745.0 53759.0
857.0 53759.0
26.0 53760.0
303.0 53760.0
366.0 53760.0
763.0 53760.0
680.0 53761.0
1442.0 53761.0
286.0 53762.0
607.0 53762.0
973.0 53762.0
129.0 53763.0
763.0 53763.0
880.0 53763.0
991.0 53763.0
1222.0 53763.0
296.0 53764.0
1390.0 53764.0
26.0 53765.0
167.0 53765.0
714.0 53765.0
949.0 53765.0
1156.0 53765.0
1172.0 53765.0
1253.0 53765.0
1423.0 53765.0
1442.0 53765.0
258.0 53766.0
680.0 53766.0
763.0 53766.0
843.0 53766.0
866.0 53766.0
487.0 53767.0
599.0 53767.0
185.0 53768.0
860.0 53768.0
763.0 53769.0
1226.0 53769.0
1417.0 53769.0
1442.0 53769.0
26.0 53770.0
477.0 53770.0
1165.0 53770.0
227.0 53771.0
347.0 53771.0
591.0 53771.0
680.0 53771.0
852.0 53771.0
1404.0 53771.0
112.0 53772.0
736.0 53772.0
763.0 53772.0
1442.0 53772.0
708.0 53773.0
725.0 53773.0
734.0 53773.0
1038.0 53773.0
1418.0 53773.0
232.0 53774.0
241.0 53774.0
632.0 53774.0
841.0 53774.0
1088.0 53774.0
26.0 53775.0
259.0 53775.0
605.0 53775.0
763.0 53775.0
1012.0 53775.0
1016.0 53775.0
1251.0 53775.0
680.0 53776.0
744.0 53776.0
1114.0 53776.0
1442.0 53776.0
861.0 53777.0
1105.0 53777.0
1337.0 53777.0
224.0 53778.0
696.0 53778.0
735.0 53778.0
763.0 53778.0
738.0 53779.0
950.0 53779.0
1001.0 53779.0
26.0 53780.0
334.0 53780.0
435.0 53780.0
866.0 53780.0
941.0 53780.0
1068.0 53780.0
1442.0 53780.0
456.0 53781.0
680.0 53781.0
718.0 53781.0
763.0 53781.0
842.0 53781.0
1340.0 53781.0
382.0 53782.0
762.0 53782.0
880.0 53782.0
328.0 53783.0
599.0 53783.0
623.0 53783.0
745.0 53783.0
366.0 53784.0
450.0 53784.0
763.0 53784.0
1254.0 53784.0
1390.0 53784.0
1442.0 53784.0
26.0 53785.0
217.0 53785.0
475.0 53785.0
580.0 53785.0
1156.0 53785.0
1172.0 53785.0
347.0 53786.0
709.0 53786.0
466.0 53787.0
680.0 53787.0
763.0 53787.0
857.0 53787.0
1075.0 53787.0
1253.0 53787.0
1345.0 53787.0
14.0 53788.0
129.0 53788.0
1118.0 53788.0
1442.0 53788.0
860.0 53789.0
959.0 53789.0
26.0 53790.0
258.0 53790.0
487.0 53790.0
763.0 53790.0
843.0 53790.0
1087.0 53790.0
1135.0 53791.0
1165.0 53791.0
1442.0 53791.0
725.0 53792.0
973.0 53792.0
1404.0 53792.0
383.0 53793.0
680.0 53793.0
763.0 53793.0
991.0 53793.0
1038.0 53793.0
1204.0 53793.0
1222.0 53793.0
866.0 53794.0
949.0 53794.0
26.0 53795.0
232.0 53795.0
241.0 53795.0
591.0 53795.0
714.0 53795.0
1012.0 53795.0
1251.0 53795.0
1442.0 53795.0
112.0 53796.0
558.0 53796.0
605.0 53796.0
632.0 53796.0
736.0 53796.0
763.0 53796.0
1016.0 53796.0
1031.0 53796.0
227.0 53797.0
601.0 53797.0
735.0 53797.0
599.0 53798.0
708.0 53798.0
224.0 53799.0
734.0 53799.0
1226.0 53799.0
1001.0 53800.0
1442.0 53800.0
