14.0 5479.0
14.0 5527.0
14.0 5560.0
26.0 5409.0
26.0 5415.0
26.0 5421.0
26.0 5428.0
26.0 5436.0
26.0 5444.0
26.0 5452.0
26.0 5460.0
26.0 5468.0
26.0 5476.0
26.0 5484.0
26.0 5492.0
26.0 5500.0
26.0 5508.0
26.0 5516.0
26.0 5524.0
26.0 5532.0
26.0 5540.0
26.0 5548.0
26.0 5556.0
26.0 5565.0
62.0 5475.0
62.0 5524.0
62.0 5557.0
77.0 5572.0
87.0 5479.0
87.0 5528.0
87.0 5563.0
112.0 5447.0
112.0 5485.0
112.0 5521.0
112.0 5551.0
121.0 5570.0
129.0 5450.0
129.0 5489.0
129.0 5528.0
129.0 5563.0
157.0 5478.0
157.0 5530.0
157.0 5565.0
159.0 5475.0
159.0 5525.0
159.0 5558.0
165.0 5523.0
165.0 5571.0
166.0 5478.0
166.0 5529.0
166.0 5562.0
167.0 5485.0
167.0 5534.0
167.0 5571.0
185.0 5464.0
185.0 5512.0
185.0 5544.0
185.0 5577.0
195.0 5568.0
217.0 5447.0
217.0 5482.0
217.0 5516.0
217.0 5548.0
217.0 5584.0
224.0 5447.0
224.0 5479.0
224.0 5510.0
224.0 5541.0
224.0 5568.0
227.0 5448.0
227.0 5487.0
227.0 5527.0
227.0 5559.0
232.0 5447.0
232.0 5479.0
232.0 5509.0
232.0 5537.0
232.0 5564.0
235.0 5553.0
241.0 5445.0
241.0 5476.0
241.0 5505.0
241.0 5534.0
241.0 5559.0
241.0 5608.0
258.0 5449.0
258.0 5484.0
258.0 5521.0
258.0 5553.0
259.0 5449.0
259.0 5490.0
259.0 5529.0
259.0 5562.0
286.0 5475.0
286.0 5530.0
286.0 5562.0
296.0 5459.0
296.0 5499.0
296.0 5532.0
296.0 5561.0
303.0 5460.0
303.0 5502.0
303.0 5537.0
303.0 5563.0
306.0 5477.0
306.0 5528.0
306.0 5560.0
328.0 5448.0
328.0 5489.0
328.0 5528.0
328.0 5561.0
334.0 5447.0
334.0 5480.0
334.0 5512.0
334.0 5542.0
334.0 5570.0
344.0 5571.0
347.0 5429.0
347.0 5446.0
347.0 5462.0
347.0 5478.0
347.0 5494.0
347.0 5509.0
347.0 5525.0
347.0 5539.0
347.0 5552.0
347.0 5566.0
347.0 5580.0
347.0 5597.0
347.0 5616.0
347.0 5638.0
347.0 5659.0
347.0 5680.0
347.0 5701.0
347.0 5723.0
347.0 5747.0
347.0 5775.0
355.0 5577.0
366.0 5445.0
366.0 5477.0
366.0 5508.0
366.0 5537.0
366.0 5564.0
368.0 5554.0
375.0 5561.0
377.0 5552.0
382.0 5451.0
382.0 5493.0
382.0 5532.0
382.0 5570.0
383.0 5545.0
407.0 5574.0
407.0 5704.0
426.0 5568.0
428.0 5468.0
428.0 5516.0
428.0 5548.0
428.0 5580.0
434.0 5467.0
434.0 5521.0
434.0 5554.0
434.0 5679.0
434.0 5800.0
435.0 5466.0
435.0 5516.0
435.0 5547.0
435.0 5579.0
438.0 5587.0
445.0 5553.0
445.0 5686.0
449.0 5542.0
449.0 5590.0
450.0 5458.0
450.0 5506.0
450.0 5540.0
450.0 5570.0
456.0 5437.0
456.0 5460.0
456.0 5482.0
456.0 5503.0
456.0 5524.0
456.0 5542.0
456.0 5560.0
456.0 5577.0
456.0 5594.0
456.0 5612.0
456.0 5633.0
456.0 5654.0
456.0 5675.0
456.0 5696.0
456.0 5718.0
456.0 5743.0
456.0 5769.0
456.0 5794.0
466.0 5498.0
466.0 5550.0
466.0 5604.0
468.0 5544.0
468.0 5592.0
474.0 5554.0
475.0 5499.0
475.0 5558.0
476.0 5551.0
476.0 5677.0
477.0 5490.0
477.0 5536.0
477.0 5570.0
478.0 5549.0
487.0 5449.0
487.0 5489.0
487.0 5527.0
487.0 5558.0
493.0 5557.0
496.0 5565.0
502.0 5584.0
504.0 5562.0
513.0 5577.0
547.0 5555.0
547.0 5684.0
558.0 5466.0
558.0 5509.0
558.0 5541.0
558.0 5571.0
558.0 5679.0
568.0 5582.0
568.0 5701.0
580.0 5491.0
580.0 5538.0
580.0 5573.0
581.0 5576.0
588.0 5561.0
588.0 5699.0
589.0 5544.0
589.0 5607.0
591.0 5435.0
591.0 5456.0
591.0 5477.0
591.0 5497.0
591.0 5516.0
591.0 5534.0
591.0 5550.0
591.0 5565.0
591.0 5581.0
591.0 5597.0
591.0 5614.0
591.0 5632.0
591.0 5651.0
591.0 5670.0
591.0 5689.0
591.0 5708.0
591.0 5729.0
591.0 5752.0
591.0 5773.0
591.0 5795.0
598.0 5565.0
599.0 5429.0
599.0 5445.0
599.0 5462.0
599.0 5478.0
599.0 5493.0
599.0 5509.0
599.0 5525.0
599.0 5538.0
599.0 5552.0
599.0 5565.0
599.0 5579.0
599.0 5597.0
599.0 5614.0
599.0 5634.0
599.0 5655.0
599.0 5675.0
599.0 5695.0
599.0 5717.0
599.0 5741.0
599.0 5767.0
599.0 5790.0
600.0 5579.0
601.0 5543.0
601.0 5594.0
605.0 5443.0
605.0 5475.0
605.0 5505.0
605.0 5534.0
605.0 5562.0
607.0 5466.0
607.0 5513.0
607.0 5546.0
607.0 5572.0
612.0 5533.0
612.0 5581.0
613.0 5543.0
615.0 5557.0
623.0 5444.0
623.0 5478.0
623.0 5514.0
623.0 5546.0
623.0 5578.0
625.0 5529.0
625.0 5583.0
628.0 5575.0
631.0 5575.0
632.0 5443.0
632.0 5475.0
632.0 5507.0
632.0 5536.0
632.0 5562.0
638.0 5571.0
641.0 5557.0
671.0 5543.0
671.0 5586.0
671.0 5637.0
671.0 5681.0
671.0 5738.0
671.0 5786.0
677.0 5557.0
677.0 5614.0
677.0 5680.0
677.0 5747.0
679.0 5542.0
679.0 5582.0
679.0 5663.0
679.0 5756.0
680.0 5406.0
680.0 5410.0
680.0 5414.0
680.0 5418.0
680.0 5422.0
680.0 5426.0
680.0 5430.0
680.0 5434.0
680.0 5438.0
680.0 5442.0
680.0 5446.0
680.0 5450.0
680.0 5454.0
680.0 5458.0
680.0 5462.0
680.0 5466.0
680.0 5470.0
680.0 5473.0
680.0 5477.0
680.0 5481.0
680.0 5484.0
680.0 5488.0
680.0 5492.0
680.0 5496.0
680.0 5500.0
680.0 5503.0
680.0 5507.0
680.0 5511.0
680.0 5514.0
680.0 5518.0
680.0 5521.0
680.0 5524.0
680.0 5527.0
680.0 5530.0
680.0 5533.0
680.0 5536.0
680.0 5539.0
680.0 5542.0
680.0 5545.0
680.0 5548.0
680.0 5551.0
680.0 5554.0
680.0 5557.0
680.0 5560.0
680.0 5563.0
680.0 5566.0
680.0 5569.0
680.0 5572.0
680.0 5575.0
680.0 5578.0
680.0 5581.0
680.0 5584.0
680.0 5587.0
680.0 5590.0
680.0 5593.0
680.0 5596.0
680.0 5599.0
680.0 5602.0
680.0 5605.0
680.0 5608.0
680.0 5611.0
680.0 5614.0
680.0 5617.0
680.0 5620.0
680.0 5623.0
680.0 5626.0
680.0 5629.0
680.0 5632.0
680.0 5635.0
680.0 5638.0
680.0 5641.0
680.0 5644.0
680.0 5647.0
680.0 5650.0
680.0 5653.0
680.0 5656.0
680.0 5659.0
680.0 5662.0
680.0 5665.0
680.0 5668.0
680.0 5671.0
680.0 5674.0
680.0 5677.0
680.0 5680.0
680.0 5683.0
680.0 5686.0
680.0 5689.0
680.0 5692.0
680.0 5695.0
680.0 5698.0
680.0 5701.0
680.0 5704.0
680.0 5707.0
680.0 5710.0
680.0 5713.0
680.0 5716.0
680.0 5719.0
680.0 5722.0
680.0 5725.0
680.0 5728.0
680.0 5731.0
680.0 5734.0
680.0 5737.0
680.0 5740.0
680.0 5743.0
680.0 5746.0
680.0 5749.0
680.0 5752.0
680.0 5755.0
680.0 5758.0
680.0 5761.0
680.0 5764.0
680.0 5767.0
680.0 5770.0
680.0 5773.0
680.0 5776.0
680.0 5779.0
680.0 5782.0
680.0 5785.0
680.0 5788.0
680.0 5791.0
680.0 5794.0
680.0 5797.0
687.0 5575.0
695.0 5558.0
695.0 5663.0
695.0 5768.0
696.0 5450.0
696.0 5485.0
696.0 5518.0
696.0 5549.0
698.0 5553.0
698.0 5613.0
698.0 5676.0
698.0 5760.0
704.0 5544.0
704.0 5605.0
704.0 5666.0
704.0 5764.0
705.0 5559.0
705.0 5658.0
705.0 5748.0
707.0 5563.0
707.0 5653.0
708.0 5451.0
708.0 5498.0
708.0 5539.0
708.0 5572.0
709.0 5466.0
709.0 5506.0
709.0 5539.0
709.0 5568.0
709.0 5690.0
714.0 5437.0
714.0 5458.0
714.0 5479.0
714.0 5499.0
714.0 5519.0
714.0 5537.0
714.0 5554.0
714.0 5570.0
714.0 5586.0
714.0 5603.0
714.0 5620.0
714.0 5637.0
714.0 5653.0
714.0 5668.0
714.0 5684.0
714.0 5700.0
714.0 5716.0
714.0 5732.0
714.0 5748.0
714.0 5764.0
714.0 5781.0
714.0 5798.0
716.0 5566.0
717.0 5558.0
717.0 5615.0
717.0 5682.0
717.0 5765.0
718.0 5466.0
718.0 5508.0
718.0 5540.0
718.0 5568.0
719.0 5559.0
719.0 5638.0
719.0 5690.0
719.0 5758.0
725.0 5434.0
725.0 5451.0
725.0 5467.0
725.0 5485.0
725.0 5501.0
725.0 5518.0
725.0 5535.0
725.0 5552.0
725.0 5569.0
725.0 5584.0
725.0 5600.0
725.0 5617.0
725.0 5636.0
725.0 5656.0
725.0 5674.0
725.0 5692.0
725.0 5713.0
725.0 5735.0
725.0 5758.0
725.0 5779.0
726.0 5541.0
726.0 5595.0
729.0 5669.0
729.0 5758.0
734.0 5444.0
734.0 5476.0
734.0 5506.0
734.0 5535.0
734.0 5560.0
734.0 5665.0
734.0 5758.0
735.0 5432.0
735.0 5450.0
735.0 5467.0
735.0 5485.0
735.0 5503.0
735.0 5520.0
735.0 5537.0
735.0 5553.0
735.0 5569.0
735.0 5585.0
735.0 5602.0
735.0 5621.0
735.0 5641.0
735.0 5662.0
735.0 5681.0
735.0 5699.0
735.0 5721.0
735.0 5744.0
735.0 5767.0
735.0 5791.0
736.0 5434.0
736.0 5456.0
736.0 5477.0
736.0 5496.0
736.0 5515.0
736.0 5534.0
736.0 5550.0
736.0 5566.0
736.0 5581.0
736.0 5598.0
736.0 5617.0
736.0 5637.0
736.0 5658.0
736.0 5678.0
736.0 5698.0
736.0 5721.0
736.0 5746.0
736.0 5770.0
736.0 5794.0
738.0 5437.0
738.0 5460.0
738.0 5482.0
738.0 5503.0
738.0 5524.0
738.0 5543.0
738.0 5561.0
738.0 5579.0
738.0 5597.0
738.0 5615.0
738.0 5633.0
738.0 5651.0
738.0 5668.0
738.0 5686.0
738.0 5703.0
738.0 5720.0
738.0 5738.0
738.0 5756.0
738.0 5774.0
738.0 5792.0
743.0 5563.0
744.0 5445.0
744.0 5477.0
744.0 5509.0
744.0 5541.0
744.0 5571.0
745.0 5446.0
745.0 5482.0
745.0 5517.0
745.0 5547.0
745.0 5581.0
751.0 5554.0
754.0 5549.0
762.0 5491.0
762.0 5549.0
763.0 5406.0
763.0 5410.0
763.0 5413.0
763.0 5416.0
763.0 5419.0
763.0 5422.0
763.0 5425.0
763.0 5428.0
763.0 5431.0
763.0 5435.0
763.0 5438.0
763.0 5441.0
763.0 5444.0
763.0 5447.0
763.0 5451.0
763.0 5454.0
763.0 5457.0
763.0 5460.0
763.0 5463.0
763.0 5467.0
763.0 5470.0
763.0 5473.0
763.0 5476.0
763.0 5479.0
763.0 5483.0
763.0 5486.0
763.0 5489.0
763.0 5492.0
763.0 5495.0
763.0 5499.0
763.0 5502.0
763.0 5505.0
763.0 5508.0
763.0 5511.0
763.0 5515.0
763.0 5518.0
763.0 5521.0
763.0 5524.0
763.0 5527.0
763.0 5530.0
763.0 5533.0
763.0 5536.0
763.0 5539.0
763.0 5542.0
763.0 5545.0
763.0 5548.0
763.0 5551.0
763.0 5554.0
763.0 5557.0
763.0 5560.0
763.0 5563.0
763.0 5566.0
763.0 5569.0
763.0 5572.0
763.0 5575.0
763.0 5578.0
763.0 5581.0
763.0 5584.0
763.0 5587.0
763.0 5590.0
763.0 5593.0
763.0 5596.0
763.0 5599.0
763.0 5602.0
763.0 5606.0
763.0 5610.0
763.0 5614.0
763.0 5618.0
763.0 5622.0
763.0 5626.0
763.0 5630.0
763.0 5634.0
763.0 5638.0
763.0 5642.0
763.0 5646.0
763.0 5650.0
763.0 5654.0
763.0 5658.0
763.0 5662.0
763.0 5666.0
763.0 5670.0
763.0 5674.0
763.0 5678.0
763.0 5682.0
763.0 5686.0
763.0 5690.0
763.0 5694.0
763.0 5699.0
763.0 5703.0
763.0 5708.0
763.0 5712.0
763.0 5717.0
763.0 5722.0
763.0 5727.0
763.0 5732.0
763.0 5737.0
763.0 5743.0
763.0 5749.0
763.0 5755.0
763.0 5761.0
763.0 5766.0
763.0 5771.0
763.0 5776.0
763.0 5781.0
763.0 5786.0
763.0 5791.0
763.0 5799.0
801.0 5544.0
801.0 5596.0
801.0 5662.0
801.0 5727.0
801.0 5793.0
805.0 5665.0
805.0 5783.0
807.0 5570.0
811.0 5583.0
819.0 5580.0
819.0 5692.0
827.0 5541.0
827.0 5596.0
827.0 5643.0
827.0 5690.0
827.0 5742.0
827.0 5793.0
832.0 5582.0
832.0 5685.0
833.0 5563.0
837.0 5558.0
837.0 5641.0
837.0 5723.0
837.0 5786.0
839.0 5556.0
839.0 5645.0
839.0 5732.0
841.0 5437.0
841.0 5463.0
841.0 5487.0
841.0 5511.0
841.0 5533.0
841.0 5552.0
841.0 5572.0
841.0 5590.0
841.0 5610.0
841.0 5635.0
841.0 5660.0
841.0 5683.0
841.0 5710.0
841.0 5739.0
841.0 5772.0
842.0 5436.0
842.0 5462.0
842.0 5485.0
842.0 5510.0
842.0 5531.0
842.0 5550.0
842.0 5569.0
842.0 5588.0
842.0 5607.0
842.0 5627.0
842.0 5647.0
842.0 5666.0
842.0 5685.0
842.0 5704.0
842.0 5723.0
842.0 5742.0
842.0 5761.0
842.0 5780.0
842.0 5799.0
843.0 5436.0
843.0 5457.0
843.0 5478.0
843.0 5499.0
843.0 5521.0
843.0 5539.0
843.0 5557.0
843.0 5574.0
843.0 5590.0
843.0 5609.0
843.0 5629.0
843.0 5652.0
843.0 5674.0
843.0 5696.0
843.0 5719.0
843.0 5746.0
843.0 5773.0
843.0 5800.0
847.0 5566.0
847.0 5664.0
847.0 5764.0
850.0 5539.0
850.0 5649.0
850.0 5782.0
851.0 5485.0
851.0 5548.0
851.0 5593.0
851.0 5643.0
851.0 5685.0
851.0 5731.0
851.0 5779.0
852.0 5436.0
852.0 5458.0
852.0 5479.0
852.0 5499.0
852.0 5519.0
852.0 5537.0
852.0 5554.0
852.0 5570.0
852.0 5586.0
852.0 5602.0
852.0 5620.0
852.0 5636.0
852.0 5653.0
852.0 5670.0
852.0 5687.0
852.0 5704.0
852.0 5721.0
852.0 5738.0
852.0 5755.0
852.0 5772.0
852.0 5789.0
857.0 5436.0
857.0 5456.0
857.0 5477.0
857.0 5495.0
857.0 5513.0
857.0 5531.0
857.0 5547.0
857.0 5562.0
857.0 5576.0
857.0 5591.0
857.0 5607.0
857.0 5623.0
857.0 5639.0
857.0 5654.0
857.0 5669.0
857.0 5685.0
857.0 5701.0
857.0 5717.0
857.0 5733.0
857.0 5749.0
857.0 5765.0
857.0 5781.0
857.0 5797.0
859.0 5559.0
860.0 5434.0
860.0 5455.0
860.0 5475.0
860.0 5493.0
860.0 5512.0
860.0 5530.0
860.0 5546.0
860.0 5561.0
860.0 5576.0
860.0 5591.0
860.0 5607.0
860.0 5625.0
860.0 5643.0
860.0 5662.0
860.0 5679.0
860.0 5697.0
860.0 5717.0
860.0 5737.0
860.0 5759.0
860.0 5781.0
861.0 5435.0
861.0 5458.0
861.0 5481.0
861.0 5503.0
861.0 5524.0
861.0 5542.0
861.0 5559.0
861.0 5575.0
861.0 5592.0
861.0 5611.0
861.0 5634.0
861.0 5655.0
861.0 5678.0
861.0 5700.0
861.0 5726.0
861.0 5754.0
861.0 5781.0
863.0 5575.0
863.0 5668.0
863.0 5789.0
864.0 5565.0
864.0 5704.0
866.0 5426.0
866.0 5438.0
866.0 5450.0
866.0 5462.0
866.0 5475.0
866.0 5487.0
866.0 5499.0
866.0 5511.0
866.0 5523.0
866.0 5534.0
866.0 5545.0
866.0 5555.0
866.0 5566.0
866.0 5576.0
866.0 5587.0
866.0 5597.0
866.0 5607.0
866.0 5619.0
866.0 5631.0
866.0 5643.0
866.0 5655.0
866.0 5667.0
866.0 5679.0
866.0 5691.0
866.0 5703.0
866.0 5715.0
866.0 5727.0
866.0 5739.0
866.0 5752.0
866.0 5764.0
866.0 5776.0
866.0 5788.0
870.0 5531.0
870.0 5584.0
872.0 5578.0
875.0 5585.0
880.0 5434.0
880.0 5453.0
880.0 5470.0
880.0 5489.0
880.0 5507.0
880.0 5525.0
880.0 5542.0
880.0 5559.0
880.0 5576.0
880.0 5592.0
880.0 5609.0
880.0 5630.0
880.0 5650.0
880.0 5670.0
880.0 5690.0
880.0 5710.0
880.0 5733.0
880.0 5758.0
880.0 5783.0
881.0 5554.0
883.0 5563.0
886.0 5552.0
889.0 5558.0
893.0 5578.0
894.0 5549.0
903.0 5577.0
941.0 5436.0
941.0 5461.0
941.0 5484.0
941.0 5507.0
941.0 5529.0
941.0 5548.0
941.0 5568.0
941.0 5588.0
941.0 5608.0
941.0 5627.0
941.0 5646.0
941.0 5665.0
941.0 5683.0
941.0 5702.0
941.0 5722.0
941.0 5740.0
941.0 5759.0
941.0 5777.0
941.0 5795.0
942.0 5577.0
942.0 5664.0
942.0 5748.0
949.0 5435.0
949.0 5456.0
949.0 5476.0
949.0 5495.0
949.0 5514.0
949.0 5531.0
949.0 5547.0
949.0 5563.0
949.0 5579.0
949.0 5595.0
949.0 5611.0
949.0 5627.0
949.0 5643.0
949.0 5659.0
949.0 5675.0
949.0 5691.0
949.0 5707.0
949.0 5723.0
949.0 5739.0
949.0 5755.0
949.0 5771.0
949.0 5787.0
950.0 5435.0
950.0 5459.0
950.0 5481.0
950.0 5504.0
950.0 5526.0
950.0 5545.0
950.0 5562.0
950.0 5579.0
950.0 5597.0
950.0 5616.0
950.0 5634.0
950.0 5652.0
950.0 5669.0
950.0 5685.0
950.0 5702.0
950.0 5720.0
950.0 5738.0
950.0 5756.0
950.0 5772.0
950.0 5789.0
951.0 5558.0
951.0 5646.0
951.0 5718.0
951.0 5788.0
953.0 5579.0
953.0 5671.0
953.0 5756.0
959.0 5436.0
959.0 5460.0
959.0 5482.0
959.0 5505.0
959.0 5526.0
959.0 5545.0
959.0 5562.0
959.0 5580.0
959.0 5598.0
959.0 5617.0
959.0 5635.0
959.0 5653.0
959.0 5670.0
959.0 5687.0
959.0 5706.0
959.0 5724.0
959.0 5742.0
959.0 5760.0
959.0 5778.0
959.0 5796.0
960.0 5559.0
960.0 5622.0
960.0 5706.0
965.0 5549.0
965.0 5673.0
965.0 5757.0
971.0 5584.0
973.0 5434.0
973.0 5455.0
973.0 5476.0
973.0 5496.0
973.0 5516.0
973.0 5534.0
973.0 5552.0
973.0 5568.0
973.0 5585.0
973.0 5603.0
973.0 5621.0
973.0 5638.0
973.0 5655.0
973.0 5671.0
973.0 5687.0
973.0 5703.0
973.0 5720.0
973.0 5737.0
973.0 5753.0
973.0 5769.0
973.0 5786.0
975.0 5591.0
975.0 5671.0
975.0 5776.0
981.0 5557.0
981.0 5618.0
981.0 5683.0
981.0 5758.0
985.0 5496.0
985.0 5557.0
985.0 5621.0
985.0 5685.0
985.0 5753.0
989.0 5542.0
989.0 5597.0
991.0 5435.0
991.0 5456.0
991.0 5477.0
991.0 5497.0
991.0 5518.0
991.0 5535.0
991.0 5553.0
991.0 5570.0
991.0 5587.0
991.0 5603.0
991.0 5620.0
991.0 5636.0
991.0 5653.0
991.0 5669.0
991.0 5685.0
991.0 5701.0
991.0 5718.0
991.0 5734.0
991.0 5751.0
991.0 5767.0
991.0 5783.0
991.0 5800.0
992.0 5544.0
994.0 5552.0
997.0 5655.0
997.0 5752.0
998.0 5662.0
998.0 5757.0
1001.0 5432.0
1001.0 5451.0
1001.0 5471.0
1001.0 5491.0
1001.0 5510.0
1001.0 5529.0
1001.0 5547.0
1001.0 5564.0
1001.0 5582.0
1001.0 5599.0
1001.0 5619.0
1001.0 5640.0
1001.0 5661.0
1001.0 5681.0
1001.0 5702.0
1001.0 5726.0
1001.0 5753.0
1001.0 5778.0
1003.0 5575.0
1010.0 5566.0
1012.0 5431.0
1012.0 5450.0
1012.0 5468.0
1012.0 5487.0
1012.0 5505.0
1012.0 5524.0
1012.0 5542.0
1012.0 5558.0
1012.0 5575.0
1012.0 5593.0
1012.0 5611.0
1012.0 5632.0
1012.0 5653.0
1012.0 5674.0
1012.0 5694.0
1012.0 5716.0
1012.0 5740.0
1012.0 5766.0
1012.0 5789.0
1014.0 5551.0
1016.0 5434.0
1016.0 5453.0
1016.0 5473.0
1016.0 5493.0
1016.0 5513.0
1016.0 5532.0
1016.0 5551.0
1016.0 5570.0
1016.0 5590.0
1016.0 5609.0
1016.0 5632.0
1016.0 5655.0
1016.0 5677.0
1016.0 5700.0
1016.0 5725.0
1016.0 5751.0
1016.0 5779.0
1018.0 5543.0
1018.0 5594.0
1021.0 5562.0
1022.0 5554.0
1031.0 5538.0
1038.0 5432.0
1038.0 5450.0
1038.0 5468.0
1038.0 5486.0
1038.0 5505.0
1038.0 5524.0
1038.0 5541.0
1038.0 5558.0
1038.0 5575.0
1038.0 5592.0
1038.0 5610.0
1038.0 5630.0
1038.0 5650.0
1038.0 5671.0
1038.0 5691.0
1038.0 5712.0
1038.0 5735.0
1038.0 5760.0
1038.0 5784.0
1067.0 5582.0
1067.0 5677.0
1068.0 5435.0
1068.0 5457.0
1068.0 5479.0
1068.0 5501.0
1068.0 5522.0
1068.0 5540.0
1068.0 5558.0
1068.0 5576.0
1068.0 5594.0
1068.0 5612.0
1068.0 5630.0
1068.0 5647.0
1068.0 5665.0
1068.0 5682.0
1068.0 5699.0
1068.0 5716.0
1068.0 5734.0
1068.0 5752.0
1068.0 5770.0
1068.0 5787.0
1075.0 5436.0
1075.0 5459.0
1075.0 5482.0
1075.0 5505.0
1075.0 5527.0
1075.0 5546.0
1075.0 5565.0
1075.0 5582.0
1075.0 5601.0
1075.0 5619.0
1075.0 5637.0
1075.0 5656.0
1075.0 5674.0
1075.0 5692.0
1075.0 5710.0
1075.0 5728.0
1075.0 5747.0
1075.0 5765.0
1075.0 5783.0
1084.0 5566.0
1084.0 5626.0
1084.0 5688.0
1084.0 5752.0
1087.0 5436.0
1087.0 5460.0
1087.0 5481.0
1087.0 5503.0
1087.0 5524.0
1087.0 5542.0
1087.0 5561.0
1087.0 5578.0
1087.0 5596.0
1087.0 5614.0
1087.0 5632.0
1087.0 5650.0
1087.0 5668.0
1087.0 5686.0
1087.0 5703.0
1087.0 5721.0
1087.0 5739.0
1087.0 5757.0
1087.0 5775.0
1087.0 5793.0
1088.0 5436.0
1088.0 5459.0
1088.0 5481.0
1088.0 5504.0
1088.0 5526.0
1088.0 5545.0
1088.0 5564.0
1088.0 5583.0
1088.0 5603.0
1088.0 5622.0
1088.0 5641.0
1088.0 5659.0
1088.0 5676.0
1088.0 5694.0
1088.0 5713.0
1088.0 5731.0
1088.0 5749.0
1088.0 5767.0
1088.0 5785.0
1105.0 5434.0
1105.0 5454.0
1105.0 5474.0
1105.0 5493.0
1105.0 5512.0
1105.0 5530.0
1105.0 5546.0
1105.0 5562.0
1105.0 5578.0
1105.0 5593.0
1105.0 5608.0
1105.0 5624.0
1105.0 5640.0
1105.0 5655.0
1105.0 5670.0
1105.0 5685.0
1105.0 5700.0
1105.0 5715.0
1105.0 5730.0
1105.0 5746.0
1105.0 5762.0
1105.0 5777.0
1105.0 5793.0
1106.0 5661.0
1106.0 5763.0
1107.0 5600.0
1107.0 5795.0
1110.0 5588.0
1110.0 5693.0
1114.0 5435.0
1114.0 5457.0
1114.0 5478.0
1114.0 5498.0
1114.0 5518.0
1114.0 5536.0
1114.0 5553.0
1114.0 5570.0
1114.0 5586.0
1114.0 5604.0
1114.0 5622.0
1114.0 5640.0
1114.0 5657.0
1114.0 5674.0
1114.0 5691.0
1114.0 5707.0
1114.0 5724.0
1114.0 5741.0
1114.0 5758.0
1114.0 5775.0
1114.0 5792.0
1115.0 5566.0
1115.0 5644.0
1115.0 5749.0
1117.0 5565.0
1117.0 5667.0
1117.0 5763.0
1118.0 5435.0
1118.0 5459.0
1118.0 5481.0
1118.0 5503.0
1118.0 5524.0
1118.0 5543.0
1118.0 5561.0
1118.0 5579.0
1118.0 5597.0
1118.0 5616.0
1118.0 5634.0
1118.0 5652.0
1118.0 5669.0
1118.0 5687.0
1118.0 5705.0
1118.0 5724.0
1118.0 5742.0
1118.0 5760.0
1118.0 5778.0
1118.0 5795.0
1127.0 5614.0
1133.0 5602.0
1134.0 5541.0
1134.0 5589.0
1135.0 5436.0
1135.0 5460.0
1135.0 5484.0
1135.0 5507.0
1135.0 5529.0
1135.0 5549.0
1135.0 5569.0
1135.0 5588.0
1135.0 5606.0
1135.0 5625.0
1135.0 5644.0
1135.0 5663.0
1135.0 5681.0
1135.0 5699.0
1135.0 5717.0
1135.0 5735.0
1135.0 5753.0
1135.0 5771.0
1135.0 5789.0
1144.0 5559.0
1148.0 5542.0
1148.0 5585.0
1156.0 5431.0
1156.0 5450.0
1156.0 5469.0
1156.0 5488.0
1156.0 5507.0
1156.0 5525.0
1156.0 5544.0
1156.0 5561.0
1156.0 5579.0
1156.0 5597.0
1156.0 5617.0
1156.0 5638.0
1156.0 5660.0
1156.0 5681.0
1156.0 5702.0
1156.0 5726.0
1156.0 5753.0
1156.0 5779.0
1163.0 5766.0
1165.0 5431.0
1165.0 5450.0
1165.0 5469.0
1165.0 5489.0
1165.0 5509.0
1165.0 5529.0
1165.0 5548.0
1165.0 5566.0
1165.0 5584.0
1165.0 5604.0
1165.0 5626.0
1165.0 5648.0
1165.0 5670.0
1165.0 5692.0
1165.0 5715.0
1165.0 5740.0
1165.0 5769.0
1165.0 5794.0
1172.0 5431.0
1172.0 5449.0
1172.0 5468.0
1172.0 5487.0
1172.0 5507.0
1172.0 5526.0
1172.0 5543.0
1172.0 5561.0
1172.0 5579.0
1172.0 5596.0
1172.0 5615.0
1172.0 5636.0
1172.0 5658.0
1172.0 5679.0
1172.0 5700.0
1172.0 5723.0
1172.0 5747.0
1172.0 5773.0
1172.0 5796.0
1174.0 5566.0
1174.0 5668.0
1196.0 5586.0
1196.0 5664.0
1196.0 5739.0
1204.0 5436.0
1204.0 5460.0
1204.0 5482.0
1204.0 5505.0
1204.0 5526.0
1204.0 5545.0
1204.0 5563.0
1204.0 5581.0
1204.0 5599.0
1204.0 5618.0
1204.0 5636.0
1204.0 5654.0
1204.0 5672.0
1204.0 5689.0
1204.0 5706.0
1204.0 5724.0
1204.0 5742.0
1204.0 5759.0
1204.0 5777.0
1204.0 5795.0
1205.0 5576.0
1205.0 5667.0
1205.0 5753.0
1213.0 5669.0
1213.0 5777.0
1222.0 5436.0
1222.0 5458.0
1222.0 5479.0
1222.0 5499.0
1222.0 5520.0
1222.0 5538.0
1222.0 5555.0
1222.0 5573.0
1222.0 5590.0
1222.0 5608.0
1222.0 5626.0
1222.0 5643.0
1222.0 5660.0
1222.0 5676.0
1222.0 5693.0
1222.0 5710.0
1222.0 5727.0
1222.0 5744.0
1222.0 5761.0
1222.0 5777.0
1222.0 5793.0
1223.0 5675.0
1223.0 5789.0
1225.0 5563.0
1225.0 5629.0
1225.0 5685.0
1225.0 5759.0
1226.0 5435.0
1226.0 5456.0
1226.0 5477.0
1226.0 5496.0
1226.0 5516.0
1226.0 5534.0
1226.0 5550.0
1226.0 5567.0
1226.0 5583.0
1226.0 5600.0
1226.0 5617.0
1226.0 5633.0
1226.0 5649.0
1226.0 5666.0
1226.0 5683.0
1226.0 5699.0
1226.0 5715.0
1226.0 5732.0
1226.0 5749.0
1226.0 5765.0
1226.0 5782.0
1226.0 5798.0
1236.0 5658.0
1236.0 5743.0
1238.0 5668.0
1238.0 5773.0
1241.0 5559.0
1241.0 5631.0
1241.0 5703.0
1241.0 5796.0
1243.0 5528.0
1243.0 5588.0
1243.0 5659.0
1243.0 5734.0
1243.0 5798.0
1244.0 5575.0
1244.0 5673.0
1251.0 5431.0
1251.0 5449.0
1251.0 5467.0
1251.0 5485.0
1251.0 5503.0
1251.0 5521.0
1251.0 5539.0
1251.0 5556.0
1251.0 5573.0
1251.0 5589.0
1251.0 5606.0
1251.0 5625.0
1251.0 5645.0
1251.0 5664.0
1251.0 5684.0
1251.0 5704.0
1251.0 5727.0
1251.0 5751.0
1251.0 5776.0
1251.0 5799.0
1252.0 5539.0
1253.0 5431.0
1253.0 5451.0
1253.0 5472.0
1253.0 5493.0
1253.0 5513.0
1253.0 5534.0
1253.0 5553.0
1253.0 5573.0
1253.0 5592.0
1253.0 5612.0
1253.0 5636.0
1253.0 5659.0
1253.0 5683.0
1253.0 5708.0
1253.0 5734.0
1253.0 5763.0
1253.0 5791.0
1254.0 5435.0
1254.0 5458.0
1254.0 5480.0
1254.0 5500.0
1254.0 5521.0
1254.0 5540.0
1254.0 5558.0
1254.0 5575.0
1254.0 5593.0
1254.0 5611.0
1254.0 5629.0
1254.0 5647.0
1254.0 5665.0
1254.0 5682.0
1254.0 5699.0
1254.0 5716.0
1254.0 5734.0
1254.0 5752.0
1254.0 5770.0
1254.0 5788.0
1257.0 5570.0
1257.0 5676.0
1257.0 5777.0
1262.0 5556.0
1263.0 5659.0
1263.0 5738.0
1271.0 5560.0
1300.0 5563.0
1305.0 5572.0
1337.0 5434.0
1337.0 5457.0
1337.0 5479.0
1337.0 5500.0
1337.0 5521.0
1337.0 5540.0
1337.0 5558.0
1337.0 5575.0
1337.0 5594.0
1337.0 5612.0
1337.0 5629.0
1337.0 5646.0
1337.0 5663.0
1337.0 5681.0
1337.0 5698.0
1337.0 5715.0
1337.0 5732.0
1337.0 5749.0
1337.0 5767.0
1337.0 5785.0
1340.0 5434.0
1340.0 5456.0
1340.0 5478.0
1340.0 5499.0
1340.0 5520.0
1340.0 5538.0
1340.0 5556.0
1340.0 5574.0
1340.0 5592.0
1340.0 5610.0
1340.0 5628.0
1340.0 5645.0
1340.0 5662.0
1340.0 5679.0
1340.0 5696.0
1340.0 5713.0
1340.0 5730.0
1340.0 5747.0
1340.0 5764.0
1340.0 5781.0
1340.0 5798.0
1345.0 5434.0
1345.0 5457.0
1345.0 5479.0
1345.0 5502.0
1345.0 5524.0
1345.0 5542.0
1345.0 5561.0
1345.0 5579.0
1345.0 5597.0
1345.0 5616.0
1345.0 5634.0
1345.0 5652.0
1345.0 5670.0
1345.0 5688.0
1345.0 5706.0
1345.0 5724.0
1345.0 5742.0
1345.0 5760.0
1345.0 5778.0
1345.0 5796.0
1355.0 5514.0
1355.0 5593.0
1355.0 5662.0
1355.0 5731.0
1374.0 5683.0
1374.0 5787.0
1388.0 5674.0
1390.0 5431.0
1390.0 5450.0
1390.0 5469.0
1390.0 5489.0
1390.0 5508.0
1390.0 5527.0
1390.0 5545.0
1390.0 5563.0
1390.0 5580.0
1390.0 5597.0
1390.0 5615.0
1390.0 5636.0
1390.0 5656.0
1390.0 5675.0
1390.0 5695.0
1390.0 5717.0
1390.0 5740.0
1390.0 5767.0
1390.0 5791.0
1398.0 5562.0
1404.0 5433.0
1404.0 5452.0
1404.0 5472.0
1404.0 5492.0
1404.0 5511.0
1404.0 5530.0
1404.0 5548.0
1404.0 5566.0
1404.0 5584.0
1404.0 5602.0
1404.0 5623.0
1404.0 5644.0
1404.0 5665.0
1404.0 5686.0
1404.0 5708.0
1404.0 5733.0
1404.0 5760.0
1404.0 5786.0
1415.0 5721.0
1417.0 5436.0
1417.0 5461.0
1417.0 5485.0
1417.0 5509.0
1417.0 5531.0
1417.0 5551.0
1417.0 5570.0
1417.0 5589.0
1417.0 5609.0
1417.0 5628.0
1417.0 5647.0
1417.0 5666.0
1417.0 5685.0
1417.0 5704.0
1417.0 5723.0
1417.0 5742.0
1417.0 5761.0
1417.0 5780.0
1417.0 5799.0
1418.0 5436.0
1418.0 5460.0
1418.0 5483.0
1418.0 5506.0
1418.0 5528.0
1418.0 5547.0
1418.0 5566.0
1418.0 5585.0
1418.0 5604.0
1418.0 5623.0
1418.0 5641.0
1418.0 5659.0
1418.0 5677.0
1418.0 5695.0
1418.0 5714.0
1418.0 5732.0
1418.0 5750.0
1418.0 5768.0
1418.0 5786.0
1419.0 5609.0
1419.0 5677.0
1419.0 5751.0
1420.0 5765.0
1422.0 5665.0
1423.0 5435.0
1423.0 5458.0
1423.0 5480.0
1423.0 5502.0
1423.0 5524.0
1423.0 5543.0
1423.0 5562.0
1423.0 5581.0
1423.0 5599.0
1423.0 5617.0
1423.0 5635.0
1423.0 5653.0
1423.0 5671.0
1423.0 5689.0
1423.0 5707.0
1423.0 5725.0
1423.0 5743.0
1423.0 5761.0
1423.0 5779.0
1423.0 5797.0
1433.0 5590.0
1433.0 5667.0
1433.0 5758.0
1434.0 5687.0
1436.0 5669.0
1439.0 5674.0
1439.0 5782.0
1442.0 5406.0
1442.0 5410.0
1442.0 5413.0
1442.0 5416.0
1442.0 5419.0
1442.0 5422.0
1442.0 5425.0
1442.0 5428.0
1442.0 5431.0
1442.0 5435.0
1442.0 5438.0
1442.0 5441.0
1442.0 5444.0
1442.0 5447.0
1442.0 5451.0
1442.0 5454.0
1442.0 5457.0
1442.0 5460.0
1442.0 5463.0
1442.0 5467.0
1442.0 5470.0
1442.0 5473.0
1442.0 5476.0
1442.0 5479.0
1442.0 5483.0
1442.0 5486.0
1442.0 5489.0
1442.0 5492.0
1442.0 5495.0
1442.0 5499.0
1442.0 5502.0
1442.0 5505.0
1442.0 5508.0
1442.0 5511.0
1442.0 5515.0
1442.0 5518.0
1442.0 5521.0
1442.0 5524.0
1442.0 5527.0
1442.0 5531.0
1442.0 5534.0
1442.0 5537.0
1442.0 5540.0
1442.0 5543.0
1442.0 5547.0
1442.0 5550.0
1442.0 5553.0
1442.0 5556.0
1442.0 5559.0
1442.0 5563.0
1442.0 5566.0
1442.0 5569.0
1442.0 5572.0
1442.0 5575.0
1442.0 5579.0
1442.0 5582.0
1442.0 5585.0
1442.0 5588.0
1442.0 5591.0
1442.0 5595.0
1442.0 5598.0
1442.0 5601.0
1442.0 5604.0
1442.0 5607.0
1442.0 5611.0
1442.0 5614.0
1442.0 5617.0
1442.0 5620.0
1442.0 5623.0
1442.0 5626.0
1442.0 5629.0
1442.0 5632.0
1442.0 5635.0
1442.0 5638.0
1442.0 5641.0
1442.0 5644.0
1442.0 5647.0
1442.0 5650.0
1442.0 5653.0
1442.0 5656.0
1442.0 5659.0
1442.0 5662.0
1442.0 5665.0
1442.0 5668.0
1442.0 5671.0
1442.0 5674.0
1442.0 5677.0
1442.0 5680.0
1442.0 5683.0
1442.0 5686.0
1442.0 5689.0
1442.0 5692.0
1442.0 5695.0
1442.0 5698.0
1442.0 5701.0
1442.0 5704.0
1442.0 5707.0
1442.0 5710.0
1442.0 5713.0
1442.0 5716.0
1442.0 5719.0
1442.0 5722.0
1442.0 5725.0
1442.0 5728.0
1442.0 5731.0
1442.0 5734.0
1442.0 5737.0
1442.0 5740.0
1442.0 5743.0
1442.0 5746.0
1442.0 5749.0
1442.0 5752.0
1442.0 5755.0
1442.0 5758.0
1442.0 5761.0
1442.0 5764.0
1442.0 5767.0
1442.0 5770.0
1442.0 5773.0
1442.0 5776.0
1442.0 5779.0
1442.0 5782.0
1442.0 5785.0
1442.0 5788.0
1442.0 5791.0
1442.0 5794.0
1442.0 5797.0
1445.0 5652.0
1445.0 5750.0
1446.0 5563.0
1446.0 5650.0
1446.0 5725.0
