0 16 0.0797108218028 2.80418994162
0 63 0.0819837382998 3.85399044119
0 67 0.068864518278 0.934729980539
0 89 0.0684143278917 3.49743933632
0 91 0.0726477474325 2.95587573575
0 95 0.0769653198869 4.76620641071
0 97 0.0985677915223 4.76620641071
0 102 0.0737844660766 4.28347089017
0 105 0.0792991825376 6.0577426269
0 118 0.0865857455197 5.68574050157
0 120 0.0748532057158 5.98519219385
0 159 0.0894018587139 3.85399044119
0 174 0.0798060246218 2.09011977709
0 192 0.0729016425459 2.64381563127
0 272 0.0836893293573 4.3842722319
0 278 0.0766942529625 4.3842722319
0 286 0.0736585832944 3.49743933632
0 287 0.076610167508 4.07439352467
0 334 0.0884248756217 5.03367499537
0 345 0.0816022838607 6.12943438421
0 402 0.0704790789323 4.28347089017
0 434 0.0622196298836 3.96572344691
0 443 0.0749273423207 4.28347089017
0 464 0.071416971632 5.60837988324
0 556 0.0725584736662 4.76620641071
0 674 0.0734815055047 5.76206258103
0 683 0.0830858573795 5.68574050157
0 687 0.0796396090555 6.27035933128
2 0 0.0863062106099 1.86945996108
2 20 0.0805486249748 3.37021687355
2 28 0.0651069270145 5.98519219385
2 65 0.0758599358732 3.85399044119
2 78 0.0808803310321 1.61899981765
2 85 0.0691919220533 2.09011977709
2 91 0.0879740534951 3.49743933632
2 172 0.0986954259071 3.37021687355
2 173 0.0951702510156 2.64381563127
2 180 0.077345545261 5.11972695518
2 185 0.0800017814132 2.09011977709
2 186 0.0851816656237 2.2896114996
2 191 0.0867894923122 3.85399044119
2 193 0.0776905926023 2.80418994162
2 205 0.0911233482685 3.85399044119
2 206 0.0746487584478 4.3842722319
2 213 0.082846216326 4.18023955419
2 226 0.0657240130956 5.76206258103
2 286 0.0886929683949 2.95587573575
2 287 0.0830525764135 3.10014862574
2 297 0.074853680937 3.37021687355
2 302 0.0862857698663 4.07439352467
2 313 0.0752472701876 4.3842722319
2 317 0.0784564344868 3.49743933632
2 437 0.0892093838499 4.28347089017
2 445 0.0894041381743 4.28347089017
2 454 0.0980580936004 5.03367499537
2 459 0.0816013822628 5.45036555119
2 464 0.0751609804784 5.28763126254
2 539 0.083921779585 5.11972695518
2 547 0.0674013415513 4.76620641071
2 556 0.0769742409134 4.76620641071
2 559 0.08733103951 5.03367499537
2 587 0.0796624015094 5.45036555119
2 684 0.0896786884198 5.9117514715
2 694 0.0792477860032 5.98519219385
3 31 0.0718200957345 5.03367499537
3 54 0.0862889793206 2.80418994162
3 56 0.0796972247178 5.76206258103
3 59 0.0788298083229 3.10014862574
3 70 0.0656612793245 0.934729980539
3 154 0.0871052286091 5.3696149308
3 170 0.0746040064165 5.9117514715
3 197 0.0783263241056 3.2379996353
3 235 0.0740498433018 5.98519219385
3 288 0.0844665108136 3.10014862574
3 292 0.0757718868112 4.6736499027
3 313 0.068664133727 5.03367499537
3 355 0.0823542051342 6.33964717314
3 433 0.0698713619579 4.76620641071
3 444 0.0827382616555 5.03367499537
3 580 0.0782916855202 5.11972695518
3 581 0.0899350074487 5.3696149308
3 669 0.0716389137111 5.98519219385
3 686 0.0858416722895 5.68574050157
3 688 0.0988286205389 5.68574050157
4 2 0.0855292671105 2.95587573575
4 5 0.0699537181704 0.934729980539
4 15 0.0813194995464 1.86945996108
4 22 0.076369707859 2.80418994162
4 34 0.0692400385403 5.98519219385
4 35 0.0712881350977 4.76620641071
4 55 0.0795383187065 3.49743933632
4 63 0.0808486224297 3.10014862574
4 81 0.0866874467612 1.61899981765
4 83 0.088287114324 1.61899981765
4 87 0.0921578524698 4.85699945296
4 93 0.0704426384405 3.49743933632
4 97 0.0827634049613 3.49743933632
4 104 0.0852955130242 5.52993714052
4 106 0.0860415878864 4.28347089017
4 116 0.0773112512894 4.85699945296
4 126 0.0819477547402 5.68574050157
4 158 0.0669600114646 4.3842722319
4 288 0.077881634261 5.76206258103
4 362 0.0752124967355 6.27035933128
4 403 0.0739904897237 4.76620641071
4 419 0.0821452932491 4.28347089017
4 426 0.0744897813814 6.0577426269
4 435 0.0600346295192 4.6736499027
4 444 0.0920682346334 3.96572344691
4 471 0.0786872554329 5.28763126254
4 533 0.0776251649326 5.76206258103
4 548 0.0927512470274 6.27035933128
4 557 0.0806922237065 5.52993714052
4 558 0.077625808344 6.0577426269
4 587 0.0724152868641 5.76206258103
4 592 0.0768970940167 5.76206258103
4 682 0.0909787004878 5.76206258103
4 695 0.073569093368 5.9117514715
4 706 0.0733609649631 6.33964717314
5 10 0.078434180039 0.934729980539
5 17 0.0806680571076 2.09011977709
5 18 0.090555593563 2.64381563127
5 20 0.0572764927764 4.18023955419
5 21 0.0691001830941 3.37021687355
5 24 0.0732690218656 2.95587573575
5 34 0.0866418001621 5.28763126254
5 62 0.0940903535622 3.49743933632
5 70 0.0772738242449 3.10014862574
5 72 0.0859596386458 2.95587573575
5 74 0.0930959182648 1.32190781564
5 90 0.0782543037217 2.2896114996
5 100 0.0817489892495 2.95587573575
5 128 0.0737657054621 5.76206258103
5 129 0.0909420359009 5.98519219385
5 158 0.0731631498179 3.85399044119
5 169 0.0759532176497 4.28347089017
5 175 0.0857061359481 2.80418994162
5 184 0.0786410363436 2.09011977709
5 193 0.0763567167008 2.2896114996
5 197 0.0759697184637 5.11972695518
5 218 0.0995498639546 5.03367499537
5 231 0.0702997288703 5.03367499537
5 238 0.107050357393 6.20029725149
5 241 0.0756882102709 5.98519219385
5 279 0.0898833729186 5.45036555119
5 280 0.0899076383368 5.03367499537
5 285 0.0797884357347 3.49743933632
5 296 0.0789940557607 4.07439352467
5 314 0.0627599845996 2.95587573575
5 341 0.0890649121544 4.76620641071
5 421 0.0769392265545 3.96572344691
5 453 0.0803611400551 4.28347089017
5 674 0.0741394586731 5.98519219385
5 683 0.0817119933366 5.76206258103
5 687 0.0827041097238 6.33964717314
5 706 0.077846476453 5.98519219385
6 3 0.0784834432628 2.09011977709
6 7 0.0791003165061 0.934729980539
6 44 0.0737407835697 5.68574050157
6 55 0.0880498661667 5.11972695518
6 56 0.0947147061648 4.28347089017
6 60 0.062962153212 2.09011977709
6 71 0.0899759532071 3.10014862574
6 74 0.0756769784134 2.09011977709
6 92 0.0771667695172 2.09011977709
6 94 0.0940013589818 2.80418994162
6 97 0.085517341272 4.76620641071
6 99 0.0866734646338 3.49743933632
6 110 0.0827347050085 3.85399044119
6 153 0.0771856337209 5.03367499537
6 155 0.0727137580429 3.85399044119
6 173 0.088978633968 2.2896114996
6 177 0.084794049189 3.49743933632
6 194 0.0832020790888 2.2896114996
6 211 0.0832435604697 3.49743933632
6 214 0.0894269983995 3.85399044119
6 279 0.0751803963513 4.85699945296
6 285 0.0823873801467 3.37021687355
6 293 0.0936043378126 3.10014862574
6 352 0.0771659205469 5.76206258103
6 413 0.0779580740735 4.18023955419
6 447 0.0906418113541 4.28347089017
6 461 0.0759110863139 5.03367499537
6 471 0.0926002647214 5.60837988324
6 483 0.0799158039497 5.98519219385
6 484 0.0777096454468 6.0577426269
6 581 0.074930495252 6.0577426269
6 586 0.076668240792 5.03367499537
6 598 0.0670511943638 5.76206258103
6 667 0.0808485478245 6.33964717314
6 685 0.089148550423 5.68574050157
6 692 0.0870574065424 6.27035933128
6 695 0.068840981389 5.60837988324
6 708 0.0756850363379 6.33964717314
7 12 0.0654661750094 0.934729980539
7 16 0.0885885336569 2.64381563127
7 20 0.0778425444711 2.64381563127
7 28 0.0763889928393 5.28763126254
7 67 0.105430583438 2.2896114996
7 83 0.0879375399581 2.2896114996
7 84 0.0836939027723 1.61899981765
7 106 0.0769564157579 6.0577426269
7 128 0.0852264929913 5.76206258103
7 167 0.0832807545423 2.80418994162
7 178 0.078859661152 3.49743933632
7 200 0.0843918851459 3.85399044119
7 202 0.0838616051977 2.80418994162
7 215 0.0716003425175 3.85399044119
7 224 0.0733199043255 4.28347089017
7 226 0.076615088366 5.03367499537
7 230 0.0821296326066 5.76206258103
7 233 0.0882937304583 5.03367499537
7 277 0.0783537869372 3.96572344691
7 295 0.0755468705554 2.95587573575
7 323 0.0778828033914 3.85399044119
7 342 0.0794578870213 5.03367499537
7 352 0.0716368263149 6.12943438421
7 402 0.0913452734879 5.45036555119
7 413 0.0782729187714 4.28347089017
7 414 0.0838881301557 4.18023955419
7 421 0.0845735208851 4.76620641071
7 432 0.08475372877 4.6736499027
7 441 0.0725557907769 6.0577426269
7 449 0.0773067588587 4.76620641071
7 455 0.0790428246276 4.28347089017
7 464 0.0786966752965 4.6736499027
7 467 0.0764880090582 5.45036555119
7 473 0.0742996754463 5.3696149308
7 483 0.0862891485231 6.0577426269
7 545 0.0757127537627 5.3696149308
7 697 0.0778902994586 5.68574050157
8 9 0.0918956381667 3.85399044119
8 23 0.0677569886214 3.96572344691
8 32 0.0828537018102 3.85399044119
8 90 0.0778392935547 4.28347089017
8 107 0.0887602328702 6.0577426269
8 114 0.0913305231298 4.28347089017
8 161 0.0754338981229 6.20029725149
8 175 0.0789339011384 2.2896114996
8 184 0.093394576286 2.64381563127
8 191 0.0773381431379 4.28347089017
8 192 0.0723513786416 3.49743933632
8 226 0.0777502751571 4.57922299921
8 230 0.0785244329148 6.27035933128
8 308 0.0798200539022 3.37021687355
8 332 0.0630507130525 4.85699945296
8 338 0.0723438397747 4.85699945296
8 342 0.0810822079054 5.45036555119
8 348 0.075380840851 5.45036555119
8 423 0.0647609030899 4.28347089017
8 433 0.0758626699916 4.6736499027
8 434 0.0846926632366 4.18023955419
8 435 0.0916665965166 3.85399044119
8 454 0.0806814256853 5.03367499537
8 464 0.0628164188957 4.76620641071
8 473 0.0678896624114 5.60837988324
8 477 0.0670698397628 5.60837988324
8 547 0.0919116051188 5.11972695518
8 587 0.0640608240111 5.11972695518
8 679 0.0833337503472 5.98519219385
9 0 0.0842355819777 2.09011977709
9 10 0.0883970916232 0.934729980539
9 30 0.0844433326046 2.95587573575
9 32 0.0803273391629 3.96572344691
9 45 0.0712738570924 5.98519219385
9 54 0.0993007486906 4.28347089017
9 70 0.0820509007963 4.28347089017
9 72 0.0848992728623 2.2896114996
9 79 0.0798330426632 4.85699945296
9 100 0.0803442768404 2.2896114996
9 112 0.0855051595554 4.76620641071
9 115 0.0856054567306 4.28347089017
9 153 0.072158032606 4.57922299921
9 158 0.0808757468206 5.03367499537
9 164 0.0902035986024 3.49743933632
9 191 0.0691939122881 1.86945996108
9 202 0.0846763290813 2.80418994162
9 204 0.0858076529451 4.28347089017
9 211 0.0683587602601 2.80418994162
9 215 0.0897602417833 5.3696149308
9 277 0.0808594460867 5.45036555119
9 281 0.0864893457555 4.3842722319
9 284 0.0828040540991 4.07439352467
9 306 0.0683467035079 4.76620641071
9 325 0.0693283741593 4.07439352467
9 370 0.0868179587537 6.33964717314
9 400 0.0898921115878 5.60837988324
9 402 0.0927532025858 5.28763126254
9 419 0.0702773096337 4.57922299921
9 430 0.0717912093716 4.28347089017
9 444 0.0780370349566 3.85399044119
9 448 0.0806199837588 5.98519219385
9 454 0.0768101193909 3.96572344691
9 457 0.0872555976154 5.3696149308
9 465 0.0788698678062 5.60837988324
9 567 0.0690048409513 5.11972695518
10 0 0.0837140038904 1.86945996108
10 17 0.0725520938811 1.32190781564
10 18 0.084858007929 2.09011977709
10 19 0.0959630107718 2.95587573575
10 47 0.0707465275701 5.60837988324
10 61 0.0863654177567 3.49743933632
10 62 0.0767769472717 4.07439352467
10 64 0.102805038166 3.49743933632
10 67 0.0836982915243 2.09011977709
10 94 0.0683816020016 3.10014862574
10 129 0.0761006848686 5.11972695518
10 163 0.0920768409956 3.49743933632
10 169 0.0822973264191 4.57922299921
10 182 0.0837544161196 2.2896114996
10 199 0.086835140594 2.80418994162
10 225 0.0907306337577 5.03367499537
10 271 0.0734666339227 5.98519219385
10 276 0.0677497977665 4.76620641071
10 290 0.0914670330167 4.3842722319
10 291 0.0725271693835 3.85399044119
10 316 0.0893893544642 3.37021687355
10 322 0.0723966384799 3.10014862574
10 327 0.0850135606392 4.76620641071
10 336 0.0820694708693 5.03367499537
10 343 0.0726946312076 4.07439352467
10 406 0.0790236697214 5.98519219385
10 457 0.0867471005269 4.76620641071
10 470 0.0803970474982 5.03367499537
10 490 0.0960669790011 5.98519219385
10 535 0.0773621528481 6.0577426269
10 588 0.0795514843936 5.52993714052
10 593 0.0686674995009 5.3696149308
10 594 0.0877625821155 5.11972695518
10 596 0.0886297971631 5.11972695518
10 691 0.07952227241 6.33964717314
10 707 0.0820887967633 6.27035933128
10 732 0.0906858774011 6.27035933128
11 21 0.0956770413409 3.37021687355
11 30 0.0644624302946 2.95587573575
11 36 0.0790189098854 4.18023955419
11 69 0.0770187653721 2.2896114996
11 75 0.083290259785 1.61899981765
11 91 0.0806437456515 1.61899981765
11 117 0.081441823374 4.28347089017
11 124 0.0799486469576 6.0577426269
11 126 0.0666351998285 5.11972695518
11 136 0.0840636223575 5.68574050157
11 158 0.0959919013116 4.28347089017
11 167 0.0744498634274 3.85399044119
11 197 0.0870103573028 4.18023955419
11 208 0.090214457224 4.57922299921
11 219 0.091721412197 4.3842722319
11 224 0.0774790331563 3.85399044119
11 232 0.0762955077009 4.18023955419
11 240 0.0721807918601 5.11972695518
11 277 0.0788885650647 4.76620641071
11 279 0.0776792827076 5.45036555119
11 283 0.0823804208659 4.3842722319
11 284 0.100260205258 4.07439352467
11 285 0.0727232041225 3.96572344691
11 298 0.0710905996279 5.03367499537
11 319 0.0682154537436 4.6736499027
11 331 0.0833722255217 3.85399044119
11 333 0.0813260637494 3.37021687355
11 341 0.0660662137251 4.3842722319
11 356 0.0926460220258 5.03367499537
11 417 0.0894257688726 5.98519219385
11 422 0.0813935675392 4.28347089017
11 453 0.0772276984052 4.28347089017
11 492 0.0819028126116 6.0577426269
11 554 0.0765177049366 5.3696149308
11 613 0.0654809337041 6.0577426269
11 694 0.0720362943345 5.76206258103
11 704 0.0696078352158 5.9117514715
11 725 0.0858242278039 5.9117514715
11 733 0.0773191091373 6.27035933128
12 8 0.0672610907016 1.32190781564
12 27 0.0744471453337 2.64381563127
12 29 0.0740738835038 3.96572344691
12 72 0.0820217997961 4.85699945296
12 78 0.0773810732232 1.61899981765
12 79 0.0963450622062 2.2896114996
12 83 0.082999167412 2.09011977709
12 93 0.0760754710678 1.32190781564
12 95 0.0759626615215 2.2896114996
12 99 0.0954445467941 3.49743933632
12 101 0.0859789882209 2.2896114996
12 110 0.0840268159497 3.10014862574
12 163 0.0816303305641 4.3842722319
12 164 0.0971264427466 3.85399044119
12 178 0.0793205392393 3.85399044119
12 196 0.093348217743 2.64381563127
12 197 0.065383398631 3.37021687355
12 221 0.0736771358172 3.85399044119
12 230 0.074192666306 5.03367499537
12 242 0.0839852921105 5.03367499537
12 288 0.0717277171162 4.3842722319
12 297 0.0764975242442 3.85399044119
12 307 0.0824589988211 3.49743933632
12 325 0.0931079551137 2.95587573575
12 344 0.0821274907505 3.96572344691
12 359 0.073119143253 5.98519219385
12 373 0.0888025715608 6.33964717314
12 407 0.0630163815622 5.60837988324
12 410 0.0656141863244 5.98519219385
12 412 0.0808607272883 5.03367499537
12 415 0.0934469392235 4.76620641071
12 431 0.0786987615315 5.3696149308
12 435 0.0670563082898 3.85399044119
12 458 0.0775999655657 4.28347089017
12 459 0.0832903073547 4.76620641071
12 467 0.082478173148 5.03367499537
12 481 0.0778582676984 5.98519219385
12 557 0.0761962052676 5.03367499537
12 579 0.101195929119 4.76620641071
12 584 0.0923014978767 6.0577426269
12 602 0.0726177426115 6.12943438421
12 715 0.0814630552922 5.76206258103
12 724 0.0714606975914 6.20029725149
13 2 0.069275020623 2.09011977709
13 3 0.0842006283797 1.86945996108
13 6 0.0860366844333 2.09011977709
13 12 0.080153519437 0.934729980539
13 33 0.0849779588648 2.80418994162
13 37 0.0849893971497 4.6736499027
13 52 0.0823416679 6.0577426269
13 62 0.0757932847368 2.95587573575
13 67 0.0754199172088 3.49743933632
13 81 0.0732807508535 4.76620641071
13 93 0.0731189084207 1.61899981765
13 96 0.0820465317772 2.2896114996
13 136 0.0841162036515 5.98519219385
13 157 0.0574502716159 4.57922299921
13 163 0.07718645531 5.03367499537
13 186 0.0720050440692 2.09011977709
13 199 0.0781487689796 5.11972695518
13 276 0.082147408978 5.03367499537
13 282 0.0757015115595 6.12943438421
13 307 0.0887437227171 3.10014862574
13 314 0.0917447676413 3.96572344691
13 319 0.0887984795275 3.37021687355
13 332 0.0787365523634 4.3842722319
13 344 0.068046462055 4.07439352467
13 435 0.074190929739 3.96572344691
13 437 0.0806306348649 3.96572344691
13 461 0.0754380137078 5.60837988324
13 477 0.070330846964 5.03367499537
13 484 0.088027582673 5.3696149308
13 488 0.0765181511188 5.98519219385
13 537 0.0744113069815 6.27035933128
13 576 0.0761093246957 5.45036555119
13 596 0.0875744363712 5.3696149308
13 604 0.0774314461052 5.76206258103
13 678 0.0796922078012 6.27035933128
13 685 0.0814189248856 6.20029725149
13 688 0.0999077000317 5.98519219385
13 709 0.0874098030412 5.9117514715
13 714 0.0672001269764 6.33964717314
13 716 0.0798234320938 5.76206258103
14 7 0.0944473051242 2.09011977709
14 15 0.0823286203014 4.76620641071
14 16 0.0900720227706 3.85399044119
14 27 0.0842789233764 1.86945996108
14 30 0.0762951453918 4.6736499027
14 32 0.072784091104 3.37021687355
14 37 0.0718490318842 5.28763126254
14 85 0.0706837420985 2.09011977709
14 93 0.0763920368098 2.2896114996
14 99 0.0800327737108 5.11972695518
14 123 0.0825002010551 3.96572344691
14 171 0.0797327943448 6.20029725149
14 193 0.096412587601 3.37021687355
14 213 0.0703697349312 3.2379996353
14 233 0.0918432610336 4.57922299921
14 236 0.0857223510536 4.28347089017
14 283 0.0714090590746 6.12943438421
14 284 0.0780820466444 5.45036555119
14 325 0.0884632907932 3.49743933632
14 337 0.0918436326279 3.49743933632
14 417 0.0746208431226 4.76620641071
14 455 0.0581639036768 4.76620641071
14 474 0.0760967527279 5.03367499537
14 485 0.0896147830164 5.3696149308
14 558 0.080492215129 5.11972695518
14 567 0.0754366726042 5.52993714052
14 589 0.0803162484411 4.76620641071
14 595 0.0799190762711 6.27035933128
14 599 0.0738299036967 5.03367499537
14 679 0.0832362899336 6.27035933128
14 687 0.0689410064723 5.98519219385
14 715 0.0713418364711 6.33964717314
15 0 0.0736279671798 2.95587573575
15 1 0.0775211325516 3.37021687355
15 4 0.0889693815594 1.86945996108
15 5 0.0940634348816 2.09011977709
15 7 0.0892170444281 3.37021687355
15 33 0.0799117112669 4.18023955419
15 46 0.0604671993848 4.6736499027
15 66 0.0778486191491 2.95587573575
15 69 0.0736670933822 4.07439352467
15 70 0.0730255113963 4.76620641071
15 73 0.0852377153006 2.2896114996
15 81 0.0699745379633 1.61899981765
15 83 0.0864862788576 1.61899981765
15 85 0.0807622747732 3.10014862574
15 129 0.0805610805357 4.76620641071
15 137 0.0739365156534 5.52993714052
15 142 0.077226424388 5.98519219385
15 143 0.0643285850119 6.33964717314
15 162 0.068501926024 4.28347089017
15 170 0.0609074857014 3.85399044119
15 190 0.100762773594 2.2896114996
15 201 0.0664712856919 2.09011977709
15 231 0.0770974451751 3.49743933632
15 234 0.0687217255883 5.03367499537
15 250 0.0715119894878 5.76206258103
15 321 0.0692448691051 2.95587573575
15 350 0.0787384535199 4.3842722319
15 364 0.0875718440747 5.03367499537
15 421 0.0840065991308 4.6736499027
15 422 0.0741523468158 4.76620641071
15 441 0.100081459499 4.28347089017
15 452 0.0820100060463 3.85399044119
15 471 0.0682771302281 4.18023955419
15 543 0.0868954679896 6.0577426269
15 546 0.0858754739932 6.27035933128
15 583 0.0822070803586 5.03367499537
15 704 0.090171915075 5.68574050157
15 740 0.0945317310524 6.33964717314
16 3 0.0919328133466 3.96572344691
16 17 0.0742017539842 0.934729980539
16 28 0.08866420073 2.64381563127
16 29 0.0688299572674 2.09011977709
16 31 0.0761004554664 2.09011977709
16 33 0.0941219736664 3.37021687355
16 56 0.0727532729224 4.76620641071
16 67 0.0727279975133 2.95587573575
16 82 0.0669968570654 1.61899981765
16 113 0.0753056370188 4.28347089017
16 129 0.0783802565337 4.28347089017
16 133 0.0785864334069 5.11972695518
16 134 0.0724361309312 4.85699945296
16 144 0.0709417289802 6.33964717314
16 161 0.0738826080678 5.03367499537
16 177 0.0652030666185 5.03367499537
16 201 0.0735793629458 1.86945996108
16 223 0.0805335411116 3.2379996353
16 230 0.0880763095997 3.49743933632
16 241 0.0906172334586 4.28347089017
16 246 0.0880415415677 5.76206258103
16 257 0.0709346285832 6.20029725149
16 293 0.0731336125831 3.96572344691
16 317 0.0810106184227 4.07439352467
16 338 0.084464683557 6.33964717314
16 343 0.081802837073 3.49743933632
16 402 0.0821334136872 6.0577426269
16 415 0.0896984609725 5.98519219385
16 431 0.0999999178767 4.57922299921
16 447 0.072611062987 4.76620641071
16 448 0.0810883222781 5.3696149308
16 449 0.0781647479745 6.0577426269
16 456 0.085375209707 4.18023955419
16 459 0.0775995634991 5.98519219385
16 479 0.0754160159024 5.45036555119
16 492 0.0684640798631 5.60837988324
16 558 0.0747129355559 6.12943438421
16 568 0.0643406433152 5.3696149308
16 594 0.0785207977231 4.85699945296
16 607 0.0868900665178 6.27035933128
16 706 0.0792140796293 5.98519219385
18 7 0.0714196767484 1.86945996108
18 38 0.090724844789 2.95587573575
18 43 0.0733831402162 3.85399044119
18 59 0.07326756681 4.28347089017
18 66 0.075160117022 4.07439352467
18 81 0.0745351668697 3.96572344691
18 83 0.0759394848379 2.2896114996
18 86 0.0804166375973 1.61899981765
18 93 0.0817302395526 0.934729980539
18 102 0.0744957612767 1.32190781564
18 127 0.073287981171 4.28347089017
18 129 0.0803941471444 3.85399044119
18 131 0.0893414166695 4.28347089017
18 172 0.0926914401236 4.3842722319
18 174 0.101581413044 3.49743933632
18 180 0.0817864639592 5.3696149308
18 206 0.0746768204739 3.37021687355
18 215 0.0787417252591 2.80418994162
18 235 0.0864741327695 3.85399044119
18 306 0.0762352758868 3.49743933632
18 316 0.0899456949454 2.95587573575
18 330 0.0823998052577 4.76620641071
18 333 0.0966410022423 3.10014862574
18 347 0.0805765777685 4.3842722319
18 348 0.0826951372488 5.03367499537
18 353 0.0698633547378 4.3842722319
18 355 0.071166641566 3.96572344691
18 357 0.0689788666971 4.3842722319
18 366 0.0589680691822 4.76620641071
18 421 0.0713569230784 5.45036555119
18 485 0.0836141410471 4.76620641071
18 494 0.0897139325647 5.60837988324
18 495 0.0805189725376 5.98519219385
18 613 0.085626324493 5.45036555119
18 616 0.0800827857824 6.12943438421
18 620 0.0833357793346 6.0577426269
18 705 0.0785590093575 5.76206258103
18 741 0.0738960293643 6.33964717314
20 31 0.0815479972938 3.37021687355
20 41 0.0760162079582 5.98519219385
20 70 0.0886301812156 3.10014862574
20 78 0.0762184647727 2.2896114996
20 84 0.0735413816782 3.10014862574
20 88 0.0777049518528 1.61899981765
20 91 0.0683648988879 3.85399044119
20 103 0.0796526229568 1.61899981765
20 108 0.0855964527478 5.11972695518
20 120 0.0725940570043 3.49743933632
20 156 0.0618303531745 6.27035933128
20 182 0.0806365520123 5.3696149308
20 183 0.0755669701445 4.57922299921
20 188 0.0774333351976 2.80418994162
20 191 0.0627502142881 5.11972695518
20 231 0.0865907282665 5.03367499537
20 244 0.0885014606299 4.18023955419
20 249 0.0838832654155 5.76206258103
20 293 0.0705810682868 5.45036555119
20 298 0.0773074104041 4.07439352467
20 307 0.087162739575 3.37021687355
20 309 0.0830405727998 3.85399044119
20 317 0.0781846562227 3.10014862574
20 325 0.0679156840817 3.37021687355
20 327 0.0823343262744 2.80418994162
20 334 0.0871421968317 3.49743933632
20 383 0.0750650728714 6.27035933128
20 435 0.0907530248726 4.57922299921
20 447 0.0799373793398 3.96572344691
20 461 0.0846299558763 6.0577426269
20 467 0.0848731058847 3.96572344691
20 472 0.0785188372967 5.60837988324
20 504 0.0741692183894 6.0577426269
20 559 0.0760104145647 5.45036555119
20 590 0.0807617081742 4.76620641071
20 617 0.0846549260229 5.76206258103
20 687 0.0710155192939 6.33964717314
20 688 0.0777923968961 6.27035933128
20 699 0.08486823135 5.98519219385
20 707 0.0746946123049 5.76206258103
20 717 0.0679018778375 5.68574050157
20 735 0.0811986490384 5.98519219385
21 10 0.0719474158884 2.64381563127
21 12 0.0793360436729 4.18023955419
21 39 0.0791475543678 4.18023955419
21 40 0.0663884227132 5.03367499537
21 41 0.0854237267664 2.95587573575
21 46 0.0736161223884 3.85399044119
21 82 0.0873093002788 2.2896114996
21 87 0.0873804644255 5.98519219385
21 106 0.0781706443953 1.61899981765
21 107 0.0817844043325 1.32190781564
21 115 0.0714437335337 2.2896114996
21 116 0.0739711077995 2.09011977709
21 170 0.091464513815 4.28347089017
21 182 0.0728327348259 3.49743933632
21 215 0.0853591936979 5.9117514715
21 246 0.0698159178402 4.28347089017
21 247 0.0695903049089 4.28347089017
21 302 0.0862815657371 4.07439352467
21 312 0.073992564211 3.37021687355
21 341 0.0930124934666 3.10014862574
21 354 0.0743115880172 4.3842722319
21 374 0.0942316283853 5.98519219385
21 443 0.0762211606763 4.28347089017
21 444 0.0931365779048 4.57922299921
21 453 0.0707085709333 3.96572344691
21 455 0.0818166451465 4.76620641071
21 463 0.088598268873 4.6736499027
21 506 0.0718340181601 5.98519219385
21 618 0.0654166597705 5.52993714052
21 702 0.0644688157797 5.98519219385
21 739 0.0684965720755 5.98519219385
23 3 0.0873937774206 4.6736499027
23 7 0.087805728299 3.37021687355
23 25 0.0748897994689 1.86945996108
23 38 0.0715961319059 2.09011977709
23 44 0.0748095925093 3.37021687355
23 47 0.0874083819851 3.73891992216
23 49 0.0854746061304 4.18023955419
23 74 0.0693065904718 3.10014862574
23 79 0.0646615002494 4.76620641071
23 81 0.0950706409744 2.80418994162
23 116 0.0655898425961 2.80418994162
23 124 0.0813685501856 4.07439352467
23 156 0.0846518263961 5.9117514715
23 164 0.0889561632866 5.03367499537
23 192 0.0754430913697 2.64381563127
23 209 0.0843061338315 2.64381563127
23 219 0.0714998428849 2.80418994162
23 225 0.0877940285946 4.28347089017
23 235 0.0800656058297 4.57922299921
23 239 0.0805866287928 3.49743933632
23 274 0.0722013563202 6.33964717314
23 292 0.0703134392955 4.76620641071
23 315 0.0730810934374 3.49743933632
23 323 0.0720278939471 2.95587573575
23 330 0.0802132244997 3.37021687355
23 340 0.0853508130142 3.49743933632
23 381 0.0793566850708 5.76206258103
23 420 0.0725005705113 5.60837988324
23 434 0.092201626724 4.76620641071
23 442 0.0901863520332 4.57922299921
23 444 0.0837537042516 4.18023955419
23 446 0.0731577846185 4.57922299921
23 451 0.0758629694079 4.76620641071
23 452 0.0745692614449 4.28347089017
23 461 0.0844188638042 3.85399044119
23 489 0.083300621665 4.76620641071
23 506 0.0733504632132 6.27035933128
23 507 0.0740966938908 6.0577426269
23 587 0.0799322576792 5.11972695518
23 612 0.0880914387173 5.11972695518
23 721 0.0728828679568 6.27035933128
23 726 0.0818907396072 5.9117514715
24 3 0.0703502050647 4.18023955419
24 19 0.0845099534961 2.09011977709
24 66 0.0787031547996 4.28347089017
24 69 0.0712109511523 3.96572344691
24 103 0.0812021660197 2.09011977709
24 114 0.0764116133611 3.96572344691
24 139 0.0726817738458 4.76620641071
24 140 0.0835528057252 5.11972695518
24 201 0.0915633653559 2.2896114996
24 213 0.0787015536918 2.09011977709
24 245 0.0787665092287 5.03367499537
24 276 0.0845764793522 6.27035933128
24 277 0.0789353786998 6.33964717314
24 298 0.0812664647878 5.98519219385
24 306 0.0846643653654 4.3842722319
24 319 0.0784032975514 5.03367499537
24 322 0.0774790199654 3.49743933632
24 327 0.0753162026507 4.07439352467
24 371 0.0708295290427 5.03367499537
24 380 0.0769288453696 5.45036555119
24 386 0.0789538296386 6.33964717314
24 461 0.0872615543094 4.18023955419
24 493 0.0715838435296 5.03367499537
24 556 0.0807011657605 5.98519219385
24 574 0.065948381442 5.76206258103
24 579 0.0769424583924 5.3696149308
24 623 0.0797484410769 6.12943438421
25 4 0.0870244409663 3.96572344691
25 21 0.0710359590645 3.73891992216
25 43 0.0775196047625 2.95587573575
25 95 0.0769826929977 2.2896114996
25 99 0.0816425406603 2.95587573575
25 107 0.080864835648 3.96572344691
25 125 0.0813534319159 4.76620641071
25 141 0.0934524204731 5.11972695518
25 165 0.076002548062 5.11972695518
25 176 0.0840094118276 4.28347089017
25 208 0.0828088366904 5.03367499537
25 216 0.0920922595366 3.37021687355
25 219 0.0814757594268 4.28347089017
25 224 0.0694735666114 2.2896114996
25 249 0.0650853204197 4.28347089017
25 278 0.0792101503136 6.33964717314
25 300 0.0784161972401 6.12943438421
25 325 0.0768161671418 2.95587573575
25 336 0.0917169715847 3.37021687355
25 342 0.0814555168969 3.49743933632
25 372 0.0607224730805 5.03367499537
25 438 0.0730416251031 5.45036555119
25 469 0.0723743330627 6.0577426269
25 474 0.0838512837162 3.85399044119
25 500 0.0695127683995 5.3696149308
25 576 0.0869043407065 5.3696149308
25 587 0.0901517857729 4.76620641071
25 595 0.0826981205275 5.03367499537
25 596 0.0895245777109 4.76620641071
25 610 0.079346869435 5.76206258103
25 616 0.0798202418259 5.76206258103
25 618 0.0843098537076 6.12943438421
25 714 0.0862021659195 5.98519219385
26 5 0.390337413722 3.96572344691
26 6 0.394188781617 3.37021687355
26 8 0.406881436689 2.80418994162
26 10 0.409760707937 3.37021687355
26 11 0.394622608342 2.64381563127
26 14 0.399475659515 2.09011977709
26 19 0.400758365817 0.934729980539
26 20 0.403450951981 1.32190781564
26 22 0.397364106514 3.73891992216
26 25 0.395203714439 0.934729980539
26 27 0.404854024917 0.934729980539
26 30 0.424340483748 2.95587573575
26 33 0.384871534115 0.934729980539
26 40 0.389226939633 1.86945996108
26 44 0.404058668827 2.95587573575
26 48 0.403784718077 4.18023955419
26 53 0.412709244013 6.33964717314
26 59 0.396977057749 5.52993714052
26 62 0.403029251176 4.76620641071
26 69 0.403606773725 3.96572344691
26 71 0.403590650609 3.96572344691
26 80 0.397303340462 3.49743933632
26 82 0.40749573708 4.28347089017
26 84 0.406143131137 2.80418994162
26 85 0.408331253186 2.2896114996
26 87 0.406473007871 2.2896114996
26 92 0.387832314246 2.2896114996
26 95 0.388067963027 1.61899981765
26 96 0.401497236573 2.2896114996
26 98 0.407390088142 4.76620641071
26 99 0.410136701623 3.85399044119
26 102 0.403006535951 1.32190781564
26 104 0.397796944518 1.32190781564
26 105 0.409631925694 2.09011977709
26 107 0.406747170772 4.85699945296
26 108 0.400055146056 3.96572344691
26 109 0.41232448239 3.10014862574
26 110 0.391220421237 2.2896114996
26 111 0.390953632166 1.61899981765
26 112 0.410799595234 1.32190781564
26 113 0.399163045289 1.61899981765
26 116 0.397916851265 5.11972695518
26 118 0.40116481486 3.49743933632
26 120 0.392564302649 2.2896114996
26 122 0.403150310152 2.2896114996
26 123 0.414202981465 2.80418994162
26 129 0.418785944911 3.10014862574
26 132 0.394363432549 3.49743933632
26 133 0.398657786319 6.0577426269
26 135 0.401629181796 4.76620641071
26 138 0.39637332399 3.85399044119
26 142 0.386629864956 5.11972695518
26 157 0.396693097216 6.20029725149
26 159 0.399924158054 5.9117514715
26 163 0.4066016648 6.27035933128
26 165 0.395905834271 5.3696149308
26 166 0.40234738127 5.11972695518
26 167 0.408063768716 5.03367499537
26 172 0.396246386493 5.60837988324
26 176 0.396824905294 4.18023955419
26 182 0.391679214486 5.03367499537
26 183 0.400157137136 4.3842722319
26 184 0.393568910711 3.85399044119
26 185 0.402546978722 3.49743933632
26 188 0.409532036587 3.85399044119
26 189 0.403725275332 6.20029725149
26 198 0.396147210313 3.85399044119
26 201 0.396173464133 3.49743933632
26 204 0.397870705902 2.09011977709
26 206 0.417762740978 2.80418994162
26 207 0.385679582541 3.49743933632
26 209 0.395186191692 5.03367499537
26 214 0.400090968334 1.86945996108
26 216 0.409602110663 2.64381563127
26 217 0.395694410492 3.37021687355
26 220 0.404998215292 4.28347089017
26 221 0.415055316886 3.49743933632
26 222 0.401364481356 2.80418994162
26 224 0.387621691581 2.09011977709
26 226 0.391447801123 2.80418994162
26 227 0.397097223682 3.49743933632
26 231 0.400001070492 3.85399044119
26 232 0.407270376864 3.2379996353
26 234 0.405875250376 2.64381563127
26 241 0.394737680254 3.85399044119
26 243 0.387682983977 3.37021687355
26 247 0.400653357326 5.60837988324
26 251 0.411274725539 4.18023955419
26 253 0.398866514882 4.57922299921
26 254 0.39829564006 6.27035933128
26 255 0.410313386259 5.76206258103
26 258 0.406318640613 5.03367499537
26 259 0.399933528046 5.11972695518
26 277 0.389297985684 6.33964717314
26 286 0.39439492886 5.52993714052
26 296 0.412819895922 4.6736499027
26 303 0.412717625105 4.85699945296
26 306 0.39196295903 3.96572344691
26 308 0.396140216872 4.3842722319
26 312 0.403858921062 5.76206258103
26 313 0.39430551421 5.03367499537
26 316 0.400600977713 3.49743933632
26 317 0.39309122673 3.37021687355
26 318 0.399233743552 3.49743933632
26 319 0.404513420565 3.85399044119
26 322 0.395345652435 4.76620641071
26 325 0.397000523104 3.10014862574
26 328 0.406126179633 3.49743933632
26 334 0.39610571457 2.95587573575
26 337 0.401932210716 3.37021687355
26 343 0.392296021123 3.49743933632
26 347 0.392231469411 3.49743933632
26 352 0.401234833083 5.03367499537
26 353 0.392476578844 4.3842722319
26 354 0.399669549881 3.85399044119
26 358 0.392823540321 3.85399044119
26 359 0.39701196553 4.3842722319
26 363 0.393715924657 4.85699945296
26 364 0.393453036975 4.3842722319
26 366 0.398562887329 3.96572344691
26 367 0.396291871458 4.07439352467
26 371 0.399055831866 5.98519219385
26 376 0.401612470689 4.76620641071
26 379 0.397569397692 6.12943438421
26 382 0.392385727077 5.45036555119
26 384 0.414048128065 5.76206258103
26 389 0.391279247317 6.27035933128
26 423 0.412824520464 5.60837988324
26 425 0.380628440102 5.28763126254
26 428 0.393431556262 5.98519219385
26 432 0.394939102522 5.98519219385
26 433 0.406935289574 5.45036555119
26 434 0.405458211626 5.03367499537
26 435 0.398401604014 4.76620641071
26 439 0.395493817312 5.45036555119
26 450 0.407999273072 5.03367499537
26 452 0.411692347723 6.0577426269
26 454 0.379241869326 4.76620641071
26 455 0.384079675434 4.28347089017
26 457 0.40778903461 3.85399044119
26 473 0.386724103153 4.28347089017
26 477 0.4073398973 4.28347089017
26 481 0.403905200288 5.60837988324
26 487 0.402484085866 4.57922299921
26 500 0.404239200074 5.60837988324
26 503 0.395719970802 5.3696149308
26 556 0.398046659026 6.27035933128
26 558 0.395781055189 5.98519219385
26 566 0.40109890849 6.12943438421
26 571 0.386743415288 5.76206258103
26 575 0.389708224811 6.27035933128
26 579 0.404763014411 5.03367499537
26 580 0.393153564457 5.11972695518
26 587 0.39931733932 4.85699945296
26 595 0.396271432392 5.45036555119
26 596 0.398640938207 5.03367499537
26 597 0.395373531468 4.76620641071
26 599 0.395353832578 4.76620641071
26 604 0.396394610314 5.11972695518
26 605 0.4033223687 4.85699945296
26 607 0.386115503011 4.85699945296
26 620 0.407972706984 5.76206258103
26 623 0.40286351727 5.52993714052
26 630 0.397519378281 6.0577426269
26 632 0.411003294336 6.0577426269
26 696 0.39340955754 6.33964717314
26 708 0.377400751566 5.98519219385
26 709 0.401901821509 6.20029725149
26 718 0.405080811535 5.76206258103
26 720 0.399757621893 6.33964717314
26 733 0.417684792571 5.98519219385
26 734 0.410045658403 5.76206258103
26 742 0.40465880256 5.98519219385
26 744 0.40116486459 5.98519219385
26 745 0.396533622394 6.20029725149
26 750 0.404184193468 6.33964717314
27 7 0.0822342722827 3.37021687355
27 28 0.0821965843075 5.68574050157
27 42 0.0541263785051 4.6736499027
27 73 0.0749315115299 6.33964717314
27 75 0.0782567670806 4.76620641071
27 92 0.0791875119505 3.10014862574
27 101 0.095577138296 2.95587573575
27 129 0.0776799296939 3.49743933632
27 138 0.0862643902639 3.96572344691
27 143 0.0665525206578 5.11972695518
27 148 0.0780099070334 5.98519219385
27 177 0.0888483014565 4.18023955419
27 187 0.0814312053473 3.37021687355
27 213 0.0821256852734 2.64381563127
27 215 0.0759068622477 1.86945996108
27 221 0.0703981040279 4.28347089017
27 226 0.0794838714586 2.2896114996
27 249 0.0677495324188 5.03367499537
27 250 0.0905531431255 4.57922299921
27 252 0.0777043126992 4.18023955419
27 333 0.0795878210006 3.96572344691
27 363 0.0754641328493 5.45036555119
27 365 0.0739048503394 4.3842722319
27 377 0.0815545278205 4.76620641071
27 414 0.0686123363575 6.27035933128
27 438 0.0795700981231 4.76620641071
27 446 0.101502628363 4.57922299921
27 447 0.0811067365302 4.28347089017
27 458 0.0773945529614 3.85399044119
27 466 0.0845300219677 3.73891992216
27 487 0.0814705779343 4.28347089017
27 494 0.0799111240006 4.6736499027
27 600 0.0713137260065 4.76620641071
27 604 0.0858583051289 5.52993714052
27 622 0.0820334442501 5.52993714052
27 623 0.0901241967967 5.45036555119
27 624 0.0785114211109 5.52993714052
27 633 0.0643444738378 6.0577426269
27 726 0.0646768143271 5.9117514715
27 735 0.075025503699 5.76206258103
28 32 0.0754890277644 3.73891992216
28 65 0.0958054371527 4.76620641071
28 68 0.0815232814607 5.52993714052
28 86 0.0803377128195 5.52993714052
28 110 0.0788721177923 2.95587573575
28 118 0.0845928782357 2.2896114996
28 125 0.086113193669 2.09011977709
28 138 0.0933976083768 5.52993714052
28 186 0.0879828936332 6.27035933128
28 229 0.0978138933814 2.09011977709
28 260 0.091943612159 5.11972695518
28 263 0.0709026043215 6.27035933128
28 330 0.0670493878444 2.95587573575
28 333 0.0699844219191 4.07439352467
28 349 0.0807985780514 3.49743933632
28 354 0.0767612242063 4.07439352467
28 363 0.077060330463 3.85399044119
28 381 0.0779203067818 5.98519219385
28 456 0.0869428479773 5.60837988324
28 471 0.0691970305433 3.85399044119
28 473 0.0871246197187 4.6736499027
28 482 0.0678516008932 4.28347089017
28 485 0.074022143414 6.0577426269
28 602 0.0766936986935 4.76620641071
28 603 0.079553872617 5.03367499537
28 733 0.08181392945 6.27035933128
28 747 0.0899899357439 5.98519219385
29 7 0.07021767486 4.6736499027
29 14 0.0747333756286 5.45036555119
29 18 0.0784432554045 3.37021687355
29 47 0.0746455764286 2.95587573575
29 49 0.0820429571662 3.96572344691
29 81 0.0722874242393 3.10014862574
29 88 0.0804288164358 6.33964717314
29 93 0.0790097268729 3.49743933632
29 121 0.0768105705245 3.96572344691
29 124 0.0691403853584 2.80418994162
29 125 0.0775095948047 2.2896114996
29 189 0.0904578233911 3.85399044119
29 191 0.0907680889826 3.37021687355
29 203 0.0807175747844 3.85399044119
29 210 0.087799772602 2.09011977709
29 221 0.0718182408274 2.09011977709
29 224 0.0718660918633 4.18023955419
29 229 0.0800025702605 2.2896114996
29 252 0.0857630576185 5.76206258103
29 255 0.0997330934597 4.28347089017
29 267 0.0754315020065 6.20029725149
29 284 0.0816902719719 6.33964717314
29 291 0.0720560959085 5.52993714052
29 303 0.0774952841222 4.76620641071
29 322 0.0917097497064 3.37021687355
29 340 0.0757859415195 2.95587573575
29 361 0.0853584982363 3.49743933632
29 381 0.0674479705305 5.45036555119
29 420 0.0867530260408 6.0577426269
29 461 0.0873120922819 3.85399044119
29 475 0.0823288540719 5.28763126254
29 493 0.0797193883756 5.60837988324
29 506 0.0675507854768 5.3696149308
29 514 0.0877447624792 6.0577426269
29 575 0.0857561220186 5.45036555119
29 605 0.0838524497912 5.45036555119
29 722 0.0896814423372 5.76206258103
29 733 0.0838558967454 5.9117514715
29 748 0.0789039554681 5.98519219385
30 13 0.0757819676815 3.96572344691
30 32 0.0762541868967 1.86945996108
30 40 0.0723166168828 2.95587573575
30 78 0.0900513679337 4.76620641071
30 90 0.0750023058952 2.2896114996
30 101 0.0746097905279 1.61899981765
30 118 0.0666772281889 1.32190781564
30 123 0.0859173366742 4.85699945296
30 130 0.0833768040692 3.49743933632
30 135 0.0901841586227 2.95587573575
30 141 0.0781014562579 3.85399044119
30 145 0.0907261156203 4.85699945296
30 177 0.0923595031399 6.27035933128
30 180 0.075478482503 5.03367499537
30 212 0.0752968617249 2.2896114996
30 213 0.0848173077513 2.80418994162
30 245 0.0905918028834 5.3696149308
30 247 0.0770120664769 3.49743933632
30 263 0.0779816396652 5.3696149308
30 323 0.0896306678394 3.37021687355
30 356 0.084009613644 4.07439352467
30 358 0.0889226296215 5.52993714052
30 420 0.0856693425754 6.27035933128
30 443 0.0794364134576 4.76620641071
30 447 0.0732648279056 5.45036555119
30 465 0.0787769469849 4.76620641071
30 466 0.0880086091352 5.3696149308
30 479 0.0752102333711 4.76620641071
30 577 0.0833997512371 5.52993714052
30 584 0.0954294623551 5.3696149308
30 604 0.0842892928597 4.76620641071
30 712 0.0752986454117 6.20029725149
31 18 0.0805878376007 2.09011977709
31 32 0.0884166077448 0.934729980539
31 88 0.0771328015942 4.76620641071
31 91 0.0749334713795 2.2896114996
31 129 0.0806050453743 2.2896114996
31 131 0.0811571447323 3.49743933632
31 136 0.0751470202958 2.95587573575
31 165 0.0701660256753 5.9117514715
31 166 0.0704287143033 5.98519219385
31 167 0.0955455052875 6.20029725149
31 186 0.0705420950307 4.57922299921
31 190 0.0879824191252 4.3842722319
31 204 0.083842216432 3.2379996353
31 211 0.0871185375126 2.2896114996
31 215 0.0815087099643 3.49743933632
31 218 0.0869006208963 4.18023955419
31 221 0.0650509934696 2.09011977709
31 231 0.0715386819951 2.2896114996
31 233 0.0820409819275 2.2896114996
31 234 0.0735805068238 2.80418994162
31 249 0.0850502608388 3.37021687355
31 251 0.0858786812722 3.85399044119
31 263 0.085878760732 5.11972695518
31 265 0.0695763127068 6.20029725149
31 335 0.0857892260734 3.49743933632
31 348 0.0800529365117 5.45036555119
31 351 0.0812348841952 4.07439352467
31 364 0.0765467513137 3.37021687355
31 375 0.0870592901208 4.3842722319
31 376 0.0906402700629 4.85699945296
31 389 0.0806166478009 5.76206258103
31 425 0.0671399754176 6.27035933128
31 446 0.077822784484 4.76620641071
31 455 0.0811103018504 4.18023955419
31 475 0.0722036499752 4.18023955419
31 492 0.0847650618516 4.28347089017
31 499 0.08330908798 4.76620641071
31 600 0.0844526080995 6.0577426269
31 623 0.0843516238018 5.76206258103
31 713 0.0789001427063 6.20029725149
31 735 0.0745806550429 5.9117514715
34 17 0.0772443153789 3.37021687355
34 30 0.0761666735131 3.73891992216
34 61 0.0894349077956 5.98519219385
34 86 0.0780257704446 3.10014862574
34 93 0.0804508367465 2.80418994162
34 96 0.0736707355326 2.2896114996
34 112 0.0798800424666 1.32190781564
34 130 0.0698026902926 2.2896114996
34 138 0.0730039518163 3.10014862574
34 185 0.0780465350215 4.57922299921
34 204 0.0761307400886 2.80418994162
34 236 0.0753836375441 2.2896114996
34 263 0.0775512071663 5.3696149308
34 288 0.0921866347174 6.27035933128
34 306 0.0760940992847 4.76620641071
34 316 0.0887096123196 4.3842722319
34 327 0.0756403638746 3.37021687355
34 346 0.0745293633581 2.80418994162
34 352 0.0616037792959 5.52993714052
34 355 0.0882583062455 3.49743933632
34 366 0.0810619887359 3.49743933632
34 369 0.0681375008819 3.85399044119
34 376 0.0710815954549 3.96572344691
34 380 0.0840556295157 5.45036555119
34 382 0.0857811571654 4.76620641071
34 387 0.0780029316182 6.12943438421
34 461 0.0769492898603 6.0577426269
34 468 0.0780561280407 4.28347089017
34 482 0.0803189689399 5.3696149308
34 488 0.0821665306875 4.28347089017
34 591 0.0747278501216 5.3696149308
34 598 0.088069805569 4.85699945296
34 601 0.0666822224784 5.11972695518
34 623 0.0721750051633 5.03367499537
34 624 0.0855757282154 5.11972695518
34 760 0.0731347751696 6.33964717314
35 9 0.0753842336239 3.85399044119
35 64 0.0747774879387 5.76206258103
35 83 0.0776302319731 4.28347089017
35 117 0.0912593260429 1.32190781564
35 141 0.0852626444892 3.49743933632
35 181 0.0706220843522 5.03367499537
35 191 0.075277286341 4.28347089017
35 222 0.0849426134806 3.49743933632
35 228 0.0679284947324 2.09011977709
35 264 0.0704505149016 6.27035933128
35 265 0.0877203695508 5.11972695518
35 334 0.079639082107 5.03367499537
35 344 0.0770372081513 4.76620641071
35 350 0.0865730769208 2.95587573575
35 355 0.0777533625011 4.6736499027
35 371 0.0843879239548 3.49743933632
35 385 0.0818783337932 4.76620641071
35 454 0.0769889642323 5.03367499537
35 465 0.0879416490116 6.27035933128
35 482 0.0777198157018 4.18023955419
35 490 0.0748047364137 4.28347089017
35 508 0.0777214557406 5.03367499537
35 510 0.0733384462118 5.98519219385
35 603 0.0690090347128 5.11972695518
35 731 0.0909897066035 5.76206258103
36 29 0.0914108495536 0.934729980539
36 30 0.0722301168067 1.32190781564
36 41 0.0705325377641 0.934729980539
36 49 0.0713577530815 3.37021687355
36 84 0.0727884402891 4.28347089017
36 107 0.0731637081519 1.61899981765
36 123 0.078069428267 5.68574050157
36 126 0.0791922919639 1.32190781564
36 142 0.0845739873564 3.49743933632
36 147 0.0721875275926 4.28347089017
36 186 0.0803956517878 6.27035933128
36 205 0.0819428416165 5.76206258103
36 209 0.0810446969212 2.80418994162
36 215 0.0691481416976 5.3696149308
36 233 0.0568472689649 3.37021687355
36 242 0.0654621322941 3.49743933632
36 261 0.0875556749609 4.28347089017
36 317 0.061121227837 5.98519219385
36 339 0.0954608265897 3.49743933632
36 364 0.0758246453911 3.49743933632
36 368 0.088436796438 6.33964717314
36 379 0.0910075837966 4.07439352467
36 380 0.0747522499879 4.3842722319
36 433 0.0590713200048 6.0577426269
36 476 0.0856198322727 6.0577426269
36 481 0.0690547172547 3.73891992216
36 485 0.0766340025905 5.28763126254
36 506 0.084866476194 4.76620641071
36 516 0.0779668534944 5.3696149308
36 585 0.0797124852378 5.45036555119
36 592 0.0740186701254 5.3696149308
36 595 0.0753370116707 5.11972695518
36 622 0.0782043819815 6.0577426269
36 626 0.0830636233388 5.11972695518
36 734 0.0695459057662 6.33964717314
36 747 0.0744485771312 5.68574050157
38 11 0.0735258318814 3.73891992216
38 23 0.0736389753617 2.09011977709
38 35 0.0849069045252 2.80418994162
38 76 0.0800468053218 4.76620641071
38 79 0.0972422122667 5.52993714052
38 82 0.0778229787381 4.28347089017
38 87 0.0663318813011 4.76620641071
38 98 0.0823917454612 3.49743933632
38 107 0.0700512093046 3.10014862574
38 123 0.0723355421388 3.85399044119
38 143 0.0760113627655 3.10014862574
38 147 0.0712090654176 3.85399044119
38 149 0.0732792229365 5.11972695518
38 181 0.0976743317137 5.76206258103
38 197 0.0844376182955 5.60837988324
38 219 0.0703057439644 3.49743933632
38 231 0.0714469183788 2.09011977709
38 238 0.0766026663881 3.49743933632
38 313 0.0719419701165 5.03367499537
38 326 0.0704659466271 4.3842722319
38 335 0.078407892137 3.85399044119
38 342 0.0776216658996 3.10014862574
38 343 0.0839814668898 2.95587573575
38 344 0.0815332515419 3.10014862574
38 346 0.082863090609 4.07439352467
38 352 0.0725430895821 3.37021687355
38 356 0.0918023781198 3.37021687355
38 361 0.0665458120229 4.07439352467
38 377 0.0785607265916 5.03367499537
38 382 0.0789683637715 4.3842722319
38 392 0.0810702869531 5.52993714052
38 470 0.085748676942 4.76620641071
38 474 0.0779895209648 3.96572344691
38 485 0.0807382473953 4.18023955419
38 487 0.0817997367351 5.28763126254
38 501 0.0840411134305 4.28347089017
38 592 0.0682787517839 6.27035933128
38 608 0.0762108390792 6.0577426269
39 5 0.0820082318687 5.03367499537
39 19 0.068008619996 2.95587573575
39 24 0.0807644936342 2.09011977709
39 25 0.0674625978379 1.86945996108
39 35 0.0760239896639 3.73891992216
39 36 0.0708503182829 2.80418994162
39 68 0.0898361306643 5.76206258103
39 98 0.0864535015237 4.28347089017
39 103 0.0929183728766 2.2896114996
39 108 0.0837156625715 3.10014862574
39 113 0.06287194825 2.2896114996
39 126 0.084468302344 3.10014862574
39 132 0.0671551297618 3.10014862574
39 202 0.102078365192 3.49743933632
39 203 0.0762483015047 3.37021687355
39 214 0.0825921533165 2.80418994162
39 220 0.0656950101246 3.49743933632
39 224 0.0883772550133 2.2896114996
39 226 0.0688096406561 3.49743933632
39 231 0.0882280318753 2.64381563127
39 240 0.0850820565438 2.80418994162
39 255 0.0803076936692 3.85399044119
39 260 0.0931067029157 5.03367499537
39 266 0.0915229752245 5.3696149308
39 296 0.0724277458526 6.33964717314
39 306 0.0810759472296 5.52993714052
39 316 0.088137728694 4.6736499027
39 333 0.091893348491 3.49743933632
39 360 0.0830739600283 5.52993714052
39 373 0.0872064747772 3.49743933632
39 374 0.0794487406499 3.37021687355
39 384 0.0715900023397 4.85699945296
39 433 0.0812477527672 6.27035933128
39 456 0.0861723195355 4.6736499027
39 526 0.0861065730908 6.0577426269
39 615 0.0803744116663 5.03367499537
39 716 0.0849060101753 6.27035933128
39 728 0.075261965178 6.20029725149
39 733 0.0696556015306 5.76206258103
39 734 0.0706312707736 5.68574050157
39 750 0.0902256550992 5.68574050157
40 14 0.0814216239407 3.85399044119
40 17 0.0883588514068 3.37021687355
40 23 0.0774869438562 3.37021687355
40 118 0.0781442015593 2.95587573575
40 131 0.0805811044631 1.61899981765
40 135 0.0802170935735 3.49743933632
40 146 0.0736749362035 4.76620641071
40 198 0.0799612446034 5.03367499537
40 224 0.0924835227834 2.09011977709
40 232 0.0919877005185 2.64381563127
40 249 0.0812189491345 3.2379996353
40 324 0.0821234248944 4.3842722319
40 334 0.0834726937272 3.49743933632
40 339 0.0823840307865 6.33964717314
40 344 0.0856161247083 3.10014862574
40 355 0.0790907467213 2.95587573575
40 360 0.0954977444767 6.33964717314
40 365 0.0699904940193 3.10014862574
40 434 0.080567573872 6.27035933128
40 448 0.0770614981932 5.3696149308
40 457 0.0818962645399 4.6736499027
40 458 0.0716583051651 4.76620641071
40 484 0.100812978844 3.85399044119
40 486 0.0660220554604 3.85399044119
40 589 0.0815471210219 5.52993714052
40 610 0.0763197937881 5.98519219385
40 611 0.0940407642756 5.45036555119
40 620 0.0844812146433 5.11972695518
40 630 0.0810542212449 5.11972695518
40 760 0.0844779120588 5.9117514715
40 761 0.0825428862836 5.98519219385
41 24 0.0681111269771 3.37021687355
41 27 0.0875725312784 5.45036555119
41 32 0.0875917810929 3.37021687355
41 35 0.0826012054974 1.32190781564
41 107 0.0655186792341 2.2896114996
41 109 0.0834795319913 2.2896114996
41 113 0.0758231356837 5.11972695518
41 118 0.0703994925519 1.61899981765
41 134 0.0906325573028 1.32190781564
41 139 0.0879144393979 4.85699945296
41 213 0.0953957360747 4.3842722319
41 215 0.0852171916694 5.76206258103
41 221 0.0832656549608 2.80418994162
41 262 0.0774971745784 3.85399044119
41 303 0.0908880921638 6.33964717314
41 325 0.0775903922038 5.45036555119
41 341 0.0789665319061 3.37021687355
41 365 0.083351658514 3.96572344691
41 372 0.0846767304783 3.10014862574
41 453 0.0783897068951 5.28763126254
41 604 0.0817471786856 5.3696149308
41 629 0.0769365858455 5.11972695518
41 741 0.0746012326914 5.98519219385
42 18 0.0755849343483 4.18023955419
42 32 0.0969629201286 2.64381563127
42 35 0.0805310162692 2.09011977709
42 38 0.07298463972 1.32190781564
42 41 0.0802269629417 0.934729980539
42 48 0.0782571695895 1.32190781564
42 95 0.0821590626599 5.3696149308
42 115 0.0840633489391 3.10014862574
42 117 0.0772218913176 1.61899981765
42 118 0.0886679250909 1.32190781564
42 145 0.0950523985493 3.10014862574
42 146 0.0792803442557 2.95587573575
42 218 0.0849792946141 3.85399044119
42 222 0.0765496743009 2.80418994162
42 230 0.0804717410418 2.2896114996
42 231 0.0805753208252 2.09011977709
42 242 0.0764195543029 2.64381563127
42 260 0.0874252852316 3.49743933632
42 266 0.0808223499836 4.18023955419
42 331 0.0721028102905 4.07439352467
42 332 0.0769010513356 3.96572344691
42 359 0.0785318512599 6.33964717314
42 372 0.0791664270093 2.95587573575
42 377 0.0783067963544 5.52993714052
42 378 0.0783699318619 3.49743933632
42 395 0.0755294746616 5.45036555119
42 464 0.0875412392839 5.03367499537
42 497 0.0729253438251 4.28347089017
42 498 0.0791608830265 3.96572344691
42 510 0.0742321250434 4.57922299921
42 523 0.0937148734827 5.28763126254
42 606 0.0952611978365 5.76206258103
42 615 0.0780574979292 6.0577426269
42 632 0.0987646697077 6.0577426269
42 739 0.0786151027694 5.76206258103
42 743 0.081870121111 6.33964717314
43 35 0.079589548541 2.95587573575
43 40 0.09176659432 2.09011977709
43 100 0.0838292588838 3.10014862574
43 132 0.0777667405021 3.85399044119
43 194 0.0844143388095 5.11972695518
43 222 0.087848215627 2.64381563127
43 223 0.0786135906921 2.80418994162
43 238 0.076967603243 3.37021687355
43 241 0.0739251367637 1.86945996108
43 251 0.0785901895559 2.80418994162
43 266 0.0739407738045 4.28347089017
43 268 0.0818780045733 4.28347089017
43 327 0.0897543214428 5.45036555119
43 332 0.0842946391984 4.07439352467
43 335 0.0716016115968 4.3842722319
43 337 0.0983035471648 5.45036555119
43 343 0.0717488652101 3.37021687355
43 365 0.0731383646564 2.95587573575
43 370 0.0699653901015 4.07439352467
43 373 0.0788140444185 2.95587573575
43 378 0.0795215841684 3.85399044119
43 379 0.0827210674887 3.49743933632
43 389 0.0824199699024 4.3842722319
43 443 0.0802748652133 6.27035933128
43 463 0.0836944451273 4.6736499027
43 472 0.068870714234 4.28347089017
43 485 0.0813136274571 4.28347089017
43 493 0.07699208769 4.18023955419
43 520 0.0793836361269 5.45036555119
43 604 0.10206455907 5.03367499537
43 726 0.0911149943266 6.33964717314
43 742 0.0801916738215 5.76206258103
43 760 0.089175923503 5.98519219385
43 775 0.0884425241 6.33964717314
44 28 0.0721753569232 4.18023955419
44 40 0.0780298340054 1.32190781564
44 46 0.0870961992637 2.95587573575
44 74 0.0764690290978 6.33964717314
44 111 0.0787806524064 2.09011977709
44 126 0.07184253335 2.95587573575
44 135 0.0833612987444 2.2896114996
44 145 0.0796138220837 4.07439352467
44 150 0.0806867609311 4.28347089017
44 192 0.077750689137 5.3696149308
44 212 0.0738931338841 3.49743933632
44 227 0.0840224421486 4.57922299921
44 235 0.082041646954 2.80418994162
44 257 0.071760467924 2.64381563127
44 266 0.0581304492903 4.57922299921
44 323 0.0823024435217 5.03367499537
44 331 0.0803615243941 4.85699945296
44 337 0.0767819859031 4.85699945296
44 365 0.0734302919992 2.80418994162
44 374 0.100865634393 2.95587573575
44 377 0.0804474267926 4.07439352467
44 389 0.0870126663219 4.07439352467
44 463 0.0799025463551 4.76620641071
44 480 0.0770425967712 5.3696149308
44 483 0.0793408575184 3.96572344691
44 524 0.0811716351751 5.3696149308
44 605 0.0813711186951 5.03367499537
44 608 0.0770252649952 5.76206258103
44 622 0.078864834194 4.76620641071
44 624 0.0576602518502 5.45036555119
44 633 0.092888418851 5.52993714052
45 23 0.0864837290779 3.96572344691
45 40 0.0812965519049 0.934729980539
45 50 0.0776721414173 3.37021687355
45 92 0.0866404488111 4.28347089017
45 112 0.0821647193482 2.09011977709
45 115 0.0757558702762 5.76206258103
45 137 0.0845722399757 1.61899981765
45 139 0.0888130028957 1.61899981765
45 146 0.070892108498 4.07439352467
45 151 0.0872331980104 4.28347089017
45 202 0.0745640923494 4.57922299921
45 210 0.080884842709 5.03367499537
45 230 0.0916185468709 4.28347089017
45 241 0.0721172865862 2.64381563127
45 344 0.0910370655609 3.49743933632
45 367 0.0804369526806 2.95587573575
45 373 0.0810047252711 3.49743933632
45 375 0.0732429446958 2.95587573575
45 476 0.0794459432047 4.28347089017
45 477 0.0811412679445 4.57922299921
45 489 0.0862758888141 5.28763126254
45 494 0.0852511199192 3.85399044119
45 502 0.0728461051543 3.85399044119
45 520 0.074636726083 4.76620641071
45 611 0.0781956930391 5.52993714052
45 622 0.0917989739557 4.6736499027
45 623 0.0817401000991 4.76620641071
45 630 0.0851326950631 4.85699945296
45 651 0.0739073094237 5.76206258103
45 741 0.0733648629965 5.98519219385
45 748 0.0676942048392 6.27035933128
46 10 0.0850570795201 5.68574050157
46 32 0.08312498031 3.96572344691
46 39 0.0865726713739 3.37021687355
46 40 0.0878409868723 4.18023955419
46 43 0.0635052934762 2.09011977709
46 108 0.0877795025707 2.95587573575
46 113 0.0835672454771 5.52993714052
46 119 0.0719271546452 2.80418994162
46 127 0.0749702367799 1.61899981765
46 199 0.0817854111121 5.11972695518
46 220 0.0814983614054 3.37021687355
46 225 0.0840255845046 5.76206258103
46 249 0.0673541484563 2.64381563127
46 332 0.0668064445596 4.76620641071
46 350 0.0759354341206 3.85399044119
46 366 0.0713311861566 4.76620641071
46 394 0.0911236609147 4.85699945296
46 462 0.0847830277799 5.3696149308
46 497 0.0892335293705 3.85399044119
46 520 0.083136367974 6.27035933128
46 532 0.0877723804276 5.98519219385
46 628 0.0824761035826 4.76620641071
46 629 0.0722737016435 5.03367499537
46 637 0.0898020228754 4.85699945296
46 647 0.0875442401609 5.3696149308
47 23 0.0764488718666 3.73891992216
47 46 0.0826934578556 0.934729980539
47 119 0.0742173994597 2.2896114996
47 123 0.0688896429068 5.11972695518
47 128 0.0906750375011 1.61899981765
47 200 0.083024976504 5.11972695518
47 237 0.0867508734339 3.49743933632
47 248 0.0785928502739 1.86945996108
47 334 0.0933793348862 5.03367499537
47 343 0.0813717918758 4.07439352467
47 344 0.0906224437487 4.3842722319
47 358 0.0871367092108 5.76206258103
47 360 0.0670487254361 4.07439352467
47 365 0.0895055251377 3.49743933632
47 391 0.0849958015316 4.07439352467
47 393 0.0782356035988 4.07439352467
47 494 0.0917908912884 5.3696149308
47 516 0.0749510388348 4.18023955419
47 518 0.0794244733638 4.57922299921
47 520 0.0734887625017 5.60837988324
47 521 0.0818951621409 5.03367499537
47 525 0.0889944003134 5.03367499537
47 597 0.0801409624651 6.27035933128
47 637 0.0829586679027 4.76620641071
47 767 0.0878863216201 5.76206258103
48 24 0.0784113059875 3.73891992216
48 49 0.0788282587272 0.934729980539
48 120 0.0763002168814 2.2896114996
48 129 0.0753669404605 1.61899981765
48 136 0.0815458796053 0.934729980539
48 137 0.0862068533586 1.32190781564
48 224 0.076986789846 3.85399044119
48 237 0.0743792226055 4.28347089017
48 344 0.087194004707 4.07439352467
48 453 0.0721607537242 6.27035933128
48 483 0.0735300260332 4.18023955419
48 611 0.083751200186 5.11972695518
48 621 0.075827594912 4.85699945296
48 733 0.0847853472295 6.27035933128
48 783 0.0838054631907 6.33964717314
49 41 0.0989344824948 2.95587573575
49 90 0.077230699294 5.52993714052
49 96 0.0950372930818 5.52993714052
49 98 0.0738971264067 5.3696149308
49 108 0.0784853995743 4.07439352467
49 110 0.0877020199253 3.10014862574
49 126 0.0881555222243 3.10014862574
49 127 0.0907011073159 2.2896114996
49 133 0.0715876621965 3.85399044119
49 138 0.0882051952487 1.32190781564
49 232 0.0881447683715 2.80418994162
49 250 0.082637317606 1.86945996108
49 251 0.0943937159926 2.09011977709
49 264 0.0805190263094 2.80418994162
49 270 0.073644889618 4.28347089017
49 340 0.0746946769828 5.45036555119
49 373 0.0842105836652 2.95587573575
49 385 0.074023086849 4.3842722319
49 388 0.0595605544479 3.37021687355
49 472 0.0867092129495 5.03367499537
49 503 0.0858435003064 4.18023955419
49 507 0.068667048776 4.76620641071
49 524 0.0833056251353 4.76620641071
49 530 0.0782005661122 5.60837988324
49 599 0.100021570848 6.27035933128
49 612 0.072961749947 5.11972695518
49 613 0.0941743864385 5.03367499537
49 634 0.093611121576 5.98519219385
49 641 0.0851712613926 5.11972695518
49 658 0.0839826308259 5.76206258103
49 786 0.0787732743921 6.33964717314
51 65 0.0796090613113 2.09011977709
51 174 0.0666141374702 4.28347089017
51 281 0.0919844591737 2.09011977709
51 286 0.0747753679186 5.11972695518
51 293 0.0804797350426 3.85399044119
51 304 0.0743211275829 5.03367499537
51 314 0.0748645427922 5.03367499537
51 413 0.0761315419614 4.76620641071
51 552 0.0908951010775 4.18023955419
51 684 0.0757838827783 5.76206258103
51 692 0.0948085820287 5.52993714052
51 693 0.0808393470642 5.76206258103
51 794 0.0687240256546 5.60837988324
51 795 0.0741028534496 5.68574050157
51 802 0.0755791674169 5.76206258103
51 804 0.0808844354654 5.76206258103
52 2 0.0735374351547 4.28347089017
52 53 0.0708407905779 1.86945996108
52 182 0.0730879959292 3.10014862574
52 201 0.0960952621389 5.11972695518
52 279 0.0824092980945 5.9117514715
52 293 0.0684326648495 3.2379996353
52 300 0.0766255955887 3.49743933632
52 303 0.0827007207036 3.85399044119
52 324 0.0803757289067 5.76206258103
52 331 0.0795863537485 5.98519219385
52 553 0.0826810828537 4.18023955419
52 554 0.0911569206658 4.28347089017
52 562 0.0669451317445 5.03367499537
52 575 0.0744921045473 5.3696149308
52 704 0.097428415959 6.0577426269
52 826 0.0658257545947 6.33964717314
53 5 0.0906933516849 2.95587573575
53 11 0.0692206053168 3.96572344691
53 12 0.0738355494203 4.28347089017
53 17 0.0925073221821 4.85699945296
53 78 0.0682873685292 3.96572344691
53 84 0.0759827786322 3.85399044119
53 101 0.0633799586789 5.68574050157
53 166 0.0805415150328 2.2896114996
53 170 0.0722950117585 3.49743933632
53 181 0.0809254675328 3.49743933632
53 186 0.0766804660068 4.07439352467
53 194 0.0707874462492 4.28347089017
53 213 0.0757479989043 5.98519219385
53 274 0.0788614642558 2.09011977709
53 282 0.0691926330482 2.80418994162
53 285 0.0770391062068 2.2896114996
53 307 0.0849066824846 5.03367499537
53 310 0.0694645328203 5.60837988324
53 413 0.0788401351271 3.10014862574
53 421 0.065954256643 3.49743933632
53 425 0.0774534910334 4.3842722319
53 452 0.0708624414969 5.76206258103
53 538 0.0813329091789 4.18023955419
53 542 0.0795317882089 4.76620641071
53 549 0.0613770544484 5.3696149308
53 587 0.0836199522145 6.27035933128
53 666 0.0867055486778 5.03367499537
53 668 0.082495242768 4.76620641071
53 817 0.0824793771663 5.98519219385
56 51 0.0789482066647 0.934729980539
56 64 0.0730671039938 0.934729980539
56 65 0.0886974684458 1.32190781564
56 89 0.0886104213349 3.85399044119
56 153 0.0755400284295 1.32190781564
56 156 0.0664045261075 3.10014862574
56 171 0.0748949027677 1.61899981765
56 280 0.0884682172704 2.09011977709
56 313 0.085199966465 3.85399044119
56 333 0.0833820106826 6.27035933128
56 414 0.0730707602579 5.45036555119
56 431 0.0781667046368 3.49743933632
56 453 0.0726481740803 5.03367499537
56 554 0.0667996407324 4.28347089017
56 573 0.0722352948403 4.6736499027
56 576 0.074433183851 5.45036555119
56 667 0.0849983470655 5.52993714052
56 672 0.0759549714179 4.6736499027
56 692 0.0799175497335 5.11972695518
57 4 0.0749359261456 2.2896114996
57 31 0.0753836874358 6.33964717314
57 54 0.073581542482 2.95587573575
57 73 0.0831480965351 1.86945996108
57 93 0.0702379366667 5.28763126254
57 100 0.0792039253047 5.03367499537
57 102 0.0740218449072 5.98519219385
57 166 0.0779446174688 3.85399044119
57 168 0.0802441723327 5.68574050157
57 191 0.0690770514638 3.10014862574
57 192 0.0884921461098 3.49743933632
57 272 0.0759618918436 2.2896114996
57 275 0.0818262592865 2.80418994162
57 321 0.0822977035195 4.18023955419
57 325 0.0866383645547 5.60837988324
57 406 0.0782014144459 5.52993714052
57 420 0.0891834688018 2.95587573575
57 471 0.0768332092855 6.33964717314
57 538 0.0917381588033 5.3696149308
57 578 0.0813000330656 5.98519219385
57 666 0.0912252301173 4.76620641071
57 796 0.090464639764 5.76206258103
57 835 0.0821321458304 6.27035933128
58 3 0.0775627838262 3.96572344691
58 4 0.0924007092894 2.09011977709
58 13 0.0852686174878 4.76620641071
58 18 0.086823567046 4.76620641071
58 74 0.0786571695736 1.86945996108
58 78 0.0797447106049 4.18023955419
58 152 0.0640373020794 3.10014862574
58 153 0.105270005746 2.2896114996
58 154 0.0757787082372 1.61899981765
58 172 0.0818490016715 1.32190781564
58 176 0.0751011785633 3.96572344691
58 183 0.0768303160707 2.2896114996
58 200 0.0809703072252 3.85399044119
58 203 0.0842329624313 4.76620641071
58 204 0.0843804130492 5.3696149308
58 273 0.084140667572 2.2896114996
58 277 0.075199981255 3.49743933632
58 301 0.0885746485251 2.80418994162
58 303 0.0827604609913 2.80418994162
58 321 0.0839784384023 4.28347089017
58 410 0.0792310757048 2.95587573575
58 413 0.0726360413367 3.37021687355
58 455 0.0725742339529 5.03367499537
58 456 0.0785966997148 5.45036555119
58 462 0.087126312396 5.52993714052
58 463 0.0868122387443 5.76206258103
58 533 0.0900070309745 4.28347089017
58 548 0.0685573040308 5.28763126254
58 567 0.073037283319 4.57922299921
58 574 0.0767539892794 4.76620641071
58 683 0.0835129181469 4.76620641071
58 684 0.0817019415793 4.85699945296
58 795 0.092436295148 5.76206258103
58 798 0.0836386328554 5.98519219385
58 815 0.0760861640391 5.68574050157
60 30 0.0783587511227 5.76206258103
60 57 0.0744542988786 2.80418994162
60 59 0.0761282037749 0.934729980539
60 67 0.064759514038 1.32190781564
60 69 0.0844622959881 1.32190781564
60 76 0.0687458391357 1.86945996108
60 77 0.0728720537646 2.09011977709
60 81 0.082177426915 3.96572344691
60 82 0.0775187671842 3.37021687355
60 112 0.0921850623542 5.9117514715
60 181 0.0737467683622 3.49743933632
60 184 0.0818257140555 2.09011977709
60 186 0.0733035908756 2.80418994162
60 188 0.0794412846067 4.28347089017
60 202 0.074173196408 3.85399044119
60 211 0.0792665865956 4.85699945296
60 290 0.0873420132388 4.28347089017
60 313 0.0842505184957 3.85399044119
60 330 0.0727606831009 5.76206258103
60 344 0.0726063157616 5.98519219385
60 404 0.0753976312479 2.95587573575
60 414 0.0709758902561 2.95587573575
60 425 0.0851852269479 3.49743933632
60 445 0.0921896547772 3.96572344691
60 465 0.0592580949862 5.76206258103
60 474 0.0807612629688 6.33964717314
60 540 0.0799200578992 4.76620641071
60 553 0.0787275554394 4.76620641071
60 682 0.0847367381026 5.52993714052
60 693 0.075797824676 5.3696149308
60 715 0.079227353565 5.98519219385
60 817 0.0867014915695 5.68574050157
61 6 0.0872306061342 2.2896114996
61 22 0.0783085893437 5.52993714052
61 76 0.0783481548913 2.09011977709
61 78 0.0795602547712 2.09011977709
61 86 0.080147819703 2.95587573575
61 157 0.0681797983966 1.61899981765
61 158 0.0657946796726 1.32190781564
61 164 0.0820738611836 2.09011977709
61 179 0.0802141127262 5.98519219385
61 183 0.0777065956989 2.80418994162
61 195 0.0970125748469 3.10014862574
61 212 0.0764730051683 4.85699945296
61 220 0.079596102754 6.33964717314
61 314 0.0887471800444 3.85399044119
61 322 0.078718692835 5.03367499537
61 425 0.0722614952704 3.10014862574
61 453 0.0770522270645 5.45036555119
61 463 0.0692200250844 5.52993714052
61 474 0.0932801702562 6.27035933128
61 475 0.0915692957709 6.33964717314
61 533 0.0777210230418 6.0577426269
61 545 0.0741357651363 4.18023955419
61 572 0.100537476368 5.60837988324
61 670 0.0731449024912 4.85699945296
61 677 0.0841900237545 4.6736499027
61 685 0.0768155925196 4.85699945296
61 820 0.0826936822196 5.98519219385
61 821 0.078081335169 6.33964717314
63 0 0.0698987351279 3.85399044119
63 10 0.0775793824851 4.28347089017
63 72 0.0879049098852 1.32190781564
63 157 0.0679867042102 5.11972695518
63 160 0.0878591116008 1.32190781564
63 173 0.0663398091518 3.85399044119
63 185 0.0801195199719 5.76206258103
63 200 0.0893607145432 4.07439352467
63 282 0.0844963492576 2.80418994162
63 290 0.0953331598333 2.09011977709
63 321 0.0783283225636 3.85399044119
63 339 0.0732191615441 5.11972695518
63 461 0.0725504246686 5.45036555119
63 553 0.078133179012 4.18023955419
63 592 0.0837860946904 5.3696149308
63 711 0.0920770707837 5.52993714052
63 721 0.0756449832688 6.0577426269
63 722 0.0754170259312 6.27035933128
63 844 0.0923494791943 6.33964717314
65 21 0.0776139720146 3.85399044119
65 36 0.0684368079309 5.76206258103
65 38 0.0836187973999 6.33964717314
65 59 0.0735255807574 2.09011977709
65 64 0.0865412479225 0.934729980539
65 92 0.0751779208723 3.96572344691
65 155 0.0728022444566 2.2896114996
65 156 0.0921810706664 2.80418994162
65 163 0.0745806896268 1.61899981765
65 190 0.0760589586616 2.09011977709
65 201 0.0817439104359 3.49743933632
65 209 0.0764833775914 3.85399044119
65 288 0.0782705920483 5.98519219385
65 289 0.0708163581617 2.64381563127
65 291 0.0767542519606 1.86945996108
65 315 0.0909667884315 3.85399044119
65 331 0.0736890482545 4.28347089017
65 350 0.0877889901854 5.98519219385
65 409 0.0868685356256 3.10014862574
65 443 0.0774724854111 3.49743933632
65 447 0.0793199402291 5.76206258103
65 454 0.0857275051607 4.3842722319
65 544 0.0753935078514 3.96572344691
65 548 0.0762214423606 6.0577426269
65 551 0.0855787247155 4.18023955419
65 583 0.0766503275929 4.76620641071
65 668 0.0737281618583 5.76206258103
65 815 0.084568806608 5.68574050157
68 15 0.0699978583775 3.49743933632
68 21 0.064891594198 4.76620641071
68 52 0.0833059101114 3.37021687355
68 53 0.0785596499119 2.09011977709
68 80 0.0755546226604 3.85399044119
68 89 0.0809105078369 3.96572344691
68 92 0.0681673607623 2.80418994162
68 97 0.0584666463626 5.28763126254
68 110 0.0833380960254 4.6736499027
68 113 0.0730259684828 5.45036555119
68 186 0.082393026064 2.2896114996
68 195 0.0739725966585 2.80418994162
68 196 0.0701014219672 3.49743933632
68 211 0.0736690935903 3.96572344691
68 215 0.0889084117655 4.76620641071
68 305 0.0837854535433 2.2896114996
68 313 0.0923342388884 3.2379996353
68 315 0.0716473410805 2.64381563127
68 323 0.0838512433762 3.49743933632
68 326 0.0848874664004 3.85399044119
68 406 0.0846842725892 3.85399044119
68 426 0.0807531700098 3.96572344691
68 430 0.0680999040494 4.76620641071
68 434 0.0683100897414 2.95587573575
68 452 0.0763878089804 4.85699945296
68 454 0.0784828474207 4.07439352467
68 466 0.0701407155549 5.45036555119
68 473 0.0770987085144 5.45036555119
68 555 0.0850694931694 3.85399044119
68 573 0.081631589866 5.60837988324
68 578 0.0721592962545 4.28347089017
68 579 0.0906232047935 4.57922299921
68 675 0.0781040372627 4.85699945296
68 677 0.0878320503299 4.85699945296
68 685 0.0813097554771 4.6736499027
68 806 0.0801738901334 5.76206258103
68 809 0.0866135004669 5.98519219385
68 848 0.100228168971 6.33964717314
69 5 0.0908471238251 2.2896114996
69 20 0.0864418914682 3.49743933632
69 31 0.08081271989 4.85699945296
69 53 0.082064677354 2.64381563127
69 59 0.0798934923076 2.09011977709
69 60 0.0751549727889 1.32190781564
69 63 0.0868758789509 5.60837988324
69 92 0.0768416476571 2.95587573575
69 104 0.0622036217277 4.18023955419
69 119 0.0795420237354 5.68574050157
69 168 0.0743466833201 2.2896114996
69 169 0.0785754447647 5.68574050157
69 174 0.084890103582 1.32190781564
69 179 0.0716121334911 5.76206258103
69 187 0.0878525827735 2.2896114996
69 226 0.091766931661 5.52993714052
69 227 0.0916704129883 6.0577426269
69 236 0.066434174036 6.33964717314
69 286 0.0835385891294 2.09011977709
69 291 0.0908205903018 4.18023955419
69 298 0.0807797906877 3.37021687355
69 304 0.0877558146725 2.2896114996
69 309 0.0812165819231 4.28347089017
69 327 0.0857908489587 3.85399044119
69 338 0.0874144430342 5.60837988324
69 347 0.0795378645808 5.76206258103
69 406 0.075577413716 3.49743933632
69 420 0.0699280201172 4.6736499027
69 446 0.110136768103 3.37021687355
69 542 0.0685427198516 6.0577426269
69 557 0.0765647922632 3.73891992216
69 579 0.0950246554435 4.28347089017
69 596 0.0788093171167 5.3696149308
69 683 0.0882643815822 5.45036555119
69 705 0.0748701407635 5.11972695518
69 710 0.0859560050007 6.27035933128
69 811 0.0815760062832 6.33964717314
69 815 0.0881068802299 6.27035933128
70 18 0.0773842161337 3.10014862574
70 39 0.0648569633015 5.76206258103
70 60 0.0806656713136 2.09011977709
70 64 0.0595968981925 5.60837988324
70 85 0.0899260055493 2.09011977709
70 112 0.0874800113999 4.6736499027
70 121 0.0658076752394 5.60837988324
70 189 0.0702686769326 5.98519219385
70 213 0.0773368904655 3.96572344691
70 276 0.0787487141114 3.2379996353
70 282 0.0800998492004 5.11972695518
70 297 0.0669840928018 2.09011977709
70 303 0.0804603570841 3.49743933632
70 312 0.0743821641389 5.3696149308
70 320 0.0917810358058 3.85399044119
70 417 0.078558816483 3.49743933632
70 422 0.0923975219881 3.96572344691
70 428 0.0803610960204 3.96572344691
70 439 0.0853380155953 4.07439352467
70 538 0.0843817695897 4.28347089017
70 548 0.0689081921251 3.85399044119
70 607 0.0759394578389 6.0577426269
70 677 0.0706291985996 4.85699945296
70 685 0.0781439314787 5.03367499537
70 729 0.0931026146072 6.27035933128
70 798 0.0975229432245 6.20029725149
70 806 0.0686834350837 6.33964717314
70 810 0.0885386245642 5.76206258103
71 4 0.07952024207 4.85699945296
71 33 0.0651040536298 4.85699945296
71 40 0.0775579626953 5.76206258103
71 52 0.0754716238479 5.9117514715
71 79 0.085276174948 0.934729980539
71 99 0.083752918952 5.98519219385
71 109 0.0802386829691 5.98519219385
71 120 0.0749806326211 5.9117514715
71 158 0.0942023885726 2.80418994162
71 165 0.0722560230071 3.10014862574
71 173 0.0824314975771 3.85399044119
71 187 0.0730109081887 1.32190781564
71 207 0.0813231752518 3.49743933632
71 214 0.0808378915022 3.96572344691
71 215 0.0629677839857 3.85399044119
71 295 0.0729410285172 2.64381563127
71 307 0.0799804783802 2.09011977709
71 316 0.0908629988994 3.2379996353
71 325 0.0863952870267 3.85399044119
71 326 0.0778406265623 3.49743933632
71 347 0.0590009124983 5.11972695518
71 421 0.0778995368235 5.45036555119
71 434 0.0761129011512 4.07439352467
71 465 0.0901134454888 4.76620641071
71 468 0.0677488741738 5.03367499537
71 485 0.0792601798199 6.33964717314
71 549 0.0790539093516 3.85399044119
71 550 0.0760860094806 3.96572344691
71 557 0.0788858169341 4.18023955419
71 565 0.0879433886284 6.0577426269
71 571 0.0754948014031 3.96572344691
71 596 0.0717168610629 5.98519219385
71 600 0.0753536907401 5.3696149308
71 605 0.0762057873878 6.27035933128
71 689 0.0731516406006 4.76620641071
71 729 0.0834459715974 6.0577426269
71 830 0.0927133285852 5.76206258103
72 10 0.0820649614809 3.10014862574
72 89 0.0733993056365 2.09011977709
72 100 0.0841797494183 3.96572344691
72 111 0.0824573538721 5.98519219385
72 117 0.0775612902581 5.03367499537
72 173 0.0798443717001 3.10014862574
72 199 0.0736067778735 2.2896114996
72 201 0.0679360830655 3.49743933632
72 203 0.0910282516 5.11972695518
72 204 0.0822162596167 5.98519219385
72 209 0.0811021119101 3.10014862574
72 214 0.0800885881484 6.33964717314
72 231 0.078826946935 5.52993714052
72 280 0.0792805998888 2.80418994162
72 282 0.0835216985331 2.80418994162
72 292 0.0699553052628 2.80418994162
72 322 0.0647383896597 3.2379996353
72 344 0.0852129013459 6.27035933128
72 354 0.0796888493787 6.27035933128
72 401 0.0777041834049 4.07439352467
72 430 0.089010718745 2.80418994162
72 446 0.0791577537001 5.52993714052
72 542 0.0904167585303 4.18023955419
72 583 0.0799357110654 4.18023955419
72 593 0.0936981067994 4.76620641071
72 603 0.074029650912 5.98519219385
72 610 0.0711961381892 6.27035933128
72 723 0.0935551329262 5.76206258103
72 805 0.0804868328089 6.20029725149
72 813 0.0822755203324 5.68574050157
72 827 0.0835316949518 6.27035933128
72 835 0.0886273628214 5.76206258103
72 836 0.0984907575226 5.98519219385
72 854 0.0878128665035 6.33964717314
73 0 0.0843756835715 2.2896114996
73 18 0.0737000762867 4.28347089017
73 22 0.0974533618531 3.10014862574
73 28 0.0729027771856 3.85399044119
73 92 0.0760759153136 3.37021687355
73 128 0.0884958652718 6.27035933128
73 161 0.0883902272863 2.2896114996
73 186 0.0746665432122 4.76620641071
73 189 0.0727562403888 1.61899981765
73 191 0.0744895780184 1.61899981765
73 212 0.0778929364013 4.07439352467
73 231 0.0743264946255 5.11972695518
73 233 0.0863605031495 6.0577426269
73 280 0.081444121231 3.2379996353
73 282 0.0752891363392 2.64381563127
73 310 0.0800032517264 2.80418994162
73 318 0.0783827331888 5.98519219385
73 330 0.0725878692845 3.37021687355
73 349 0.090559210091 5.3696149308
73 355 0.0856695442136 6.27035933128
73 424 0.0901860170545 4.76620641071
73 446 0.0748515035896 4.76620641071
73 461 0.0767745003899 4.07439352467
73 489 0.0898378338418 6.33964717314
73 554 0.0612351952686 3.96572344691
73 562 0.0744668178554 4.18023955419
73 565 0.0748131631481 3.85399044119
73 666 0.0862266654613 5.45036555119
74 10 0.0771903947046 1.61899981765
74 23 0.0838548613687 3.10014862574
74 24 0.0746325688655 3.49743933632
74 40 0.08257987096 6.0577426269
74 51 0.0850114037675 3.37021687355
74 57 0.0760777336599 2.09011977709
74 58 0.0723922369641 1.86945996108
74 69 0.0950462166701 2.95587573575
74 70 0.0742328446164 3.85399044119
74 76 0.0735878902975 1.86945996108
74 90 0.0874505821156 1.86945996108
74 154 0.084779712358 3.10014862574
74 160 0.0720129911853 3.49743933632
74 161 0.0790799975749 2.80418994162
74 167 0.0690191822218 4.28347089017
74 177 0.0871755123703 4.85699945296
74 183 0.0888454083092 1.32190781564
74 201 0.0788898439432 2.2896114996
74 204 0.0804472070049 4.28347089017
74 224 0.0620139033222 5.3696149308
74 240 0.0755095217988 5.76206258103
74 294 0.0745090575164 2.80418994162
74 315 0.0864684689585 2.80418994162
74 332 0.0825801901417 3.49743933632
74 343 0.0794960092897 4.57922299921
74 350 0.0798354237615 5.3696149308
74 361 0.0764111100751 5.98519219385
74 413 0.0720132614628 3.85399044119
74 420 0.0635916797781 3.10014862574
74 445 0.0861844628257 3.49743933632
74 462 0.0704758977936 4.07439352467
74 538 0.0781351331454 5.45036555119
74 556 0.0706449612089 4.28347089017
74 565 0.0887315769029 3.73891992216
74 593 0.0790268173598 4.76620641071
74 598 0.0796247583599 5.98519219385
74 684 0.0779350102639 4.85699945296
74 686 0.0814696385894 5.52993714052
74 703 0.0755995908702 4.85699945296
74 717 0.0786090191954 6.27035933128
74 722 0.078299776056 5.52993714052
74 731 0.0806754456545 5.98519219385
74 733 0.0810335052854 6.27035933128
74 827 0.0718790354146 5.68574050157
74 844 0.0881139488916 6.20029725149
76 61 0.0704762442191 2.09011977709
76 89 0.0778140827768 3.37021687355
76 152 0.0895165114691 5.52993714052
76 155 0.0759017628527 3.49743933632
76 171 0.0900777623835 3.10014862574
76 185 0.0905848677491 1.32190781564
76 194 0.0857428336704 1.61899981765
76 217 0.0766084607421 5.52993714052
76 275 0.0886204763422 3.49743933632
76 291 0.0831971764543 3.49743933632
76 292 0.0806071120182 2.80418994162
76 314 0.0755023572758 2.2896114996
76 317 0.0859573091038 2.80418994162
76 341 0.0698445534755 4.57922299921
76 345 0.0998239452767 4.57922299921
76 401 0.0794475933451 4.85699945296
76 414 0.0757288901151 3.49743933632
76 423 0.0756175471797 2.95587573575
76 437 0.0700513293893 3.96572344691
76 445 0.0930115229284 2.95587573575
76 453 0.0763826628694 3.85399044119
76 454 0.0922996304843 3.49743933632
76 455 0.0859877379461 3.37021687355
76 456 0.0822083656302 3.49743933632
76 534 0.0689589021527 5.45036555119
76 551 0.0896040929792 6.0577426269
76 556 0.0788137661999 3.85399044119
76 568 0.0698560918723 3.85399044119
76 589 0.07888129778 5.03367499537
76 682 0.0744241492093 5.52993714052
76 684 0.0854971267469 4.85699945296
76 687 0.0706717280011 5.11972695518
76 706 0.0734848397912 4.85699945296
76 713 0.0825637417087 5.3696149308
76 726 0.081217647662 5.52993714052
76 732 0.0695401444044 6.0577426269
76 805 0.100795392422 6.20029725149
76 809 0.0872886529143 6.20029725149
76 826 0.0937834488721 5.9117514715
76 831 0.0684580947548 6.27035933128
76 836 0.090537198256 5.98519219385
77 4 0.0839384788837 2.95587573575
77 11 0.0760846267926 1.61899981765
77 35 0.0767153602809 6.0577426269
77 45 0.0863298143765 5.76206258103
77 64 0.0980076646148 4.76620641071
77 68 0.098738958678 1.32190781564
77 96 0.0778745353678 3.37021687355
77 97 0.0739746958191 5.45036555119
77 105 0.0913399320869 3.96572344691
77 111 0.0737194065781 3.73891992216
77 163 0.0836008818867 3.49743933632
77 164 0.0766633103476 2.80418994162
77 165 0.0687919232527 2.2896114996
77 203 0.0832881198165 2.09011977709
77 205 0.0712022424483 2.80418994162
77 210 0.0744596475011 4.07439352467
77 274 0.0870926359457 4.3842722319
77 286 0.0737785354962 2.64381563127
77 295 0.086587395677 2.09011977709
77 302 0.0829843896732 3.37021687355
77 304 0.091053593891 2.09011977709
77 306 0.0837429419659 2.09011977709
77 410 0.0817932058598 5.03367499537
77 421 0.081263448475 4.07439352467
77 444 0.0809220707655 3.49743933632
77 453 0.0844850775822 4.3842722319
77 457 0.0735648779774 3.49743933632
77 565 0.0642398222929 4.6736499027
77 567 0.0779511213065 3.85399044119
77 570 0.0844772094 4.18023955419
77 573 0.0655303844308 6.0577426269
77 575 0.0848745925773 4.76620641071
77 584 0.0768861351858 5.60837988324
77 586 0.0882132781184 4.28347089017
77 590 0.0788276800812 5.03367499537
77 678 0.0712776300307 5.11972695518
77 688 0.0965781094061 5.11972695518
77 712 0.0831299786504 6.27035933128
77 816 0.0893396571929 5.98519219385
77 818 0.0765372985649 5.68574050157
77 847 0.0840220908221 5.98519219385
78 5 0.0667646446405 2.95587573575
78 42 0.0830001943285 6.33964717314
78 107 0.0748572419639 5.98519219385
78 113 0.0920493602617 3.85399044119
78 127 0.074934658529 6.27035933128
78 166 0.0794741245611 2.2896114996
78 177 0.0753522055892 1.61899981765
78 183 0.0754231516461 2.95587573575
78 186 0.0795087293451 0.934729980539
78 227 0.0737387718198 4.76620641071
78 291 0.0877702775203 5.11972695518
78 323 0.081990325175 3.85399044119
78 333 0.0787825524308 3.85399044119
78 335 0.0800851741186 3.37021687355
78 340 0.0901300924115 6.27035933128
78 348 0.0698649552473 5.03367499537
78 405 0.090176096961 4.07439352467
78 413 0.0951574105355 3.85399044119
78 438 0.0718388134048 3.37021687355
78 447 0.0719417678404 2.95587573575
78 535 0.0902326052142 5.98519219385
78 554 0.0678645881993 5.3696149308
78 561 0.0763185904815 4.76620641071
78 575 0.0831868380531 5.3696149308
78 608 0.0837364027935 5.60837988324
78 704 0.0812246862145 6.0577426269
78 708 0.06588533349 4.85699945296
78 715 0.0841143583522 5.3696149308
78 726 0.0814579038649 5.52993714052
78 728 0.0817168672922 5.52993714052
78 730 0.0781446772107 6.12943438421
78 735 0.0765180038259 5.98519219385
78 818 0.0763252171087 5.76206258103
78 848 0.10098421247 5.98519219385
79 11 0.0709680993275 3.10014862574
79 14 0.0618388962195 1.32190781564
79 58 0.0678394837981 5.03367499537
79 89 0.0712901994218 5.9117514715
79 93 0.0777117582366 2.64381563127
79 122 0.0833715000986 4.6736499027
79 159 0.0698456930894 3.10014862574
79 166 0.0862823143906 2.80418994162
79 168 0.0662669991525 2.09011977709
79 196 0.0687551776081 1.32190781564
79 199 0.0997992094201 5.98519219385
79 207 0.0881888806957 2.80418994162
79 213 0.082060157111 3.49743933632
79 226 0.085300483399 3.96572344691
79 278 0.081732574884 3.49743933632
79 286 0.0804082511437 3.2379996353
79 292 0.0886880425882 5.11972695518
79 294 0.0851900220874 3.49743933632
79 301 0.0690366073259 5.9117514715
79 437 0.0868947778588 2.80418994162
79 438 0.0854524642487 2.95587573575
79 455 0.078914411533 4.3842722319
79 456 0.0855799681507 3.85399044119
79 474 0.0836920876042 5.03367499537
79 487 0.10057854154 5.52993714052
79 545 0.0913713100816 5.60837988324
79 589 0.0944980898517 4.18023955419
79 706 0.0781299984315 5.11972695518
79 708 0.0694103996713 4.76620641071
79 842 0.0706072758032 5.76206258103
80 1 0.0801614798702 3.96572344691
80 10 0.0911357156864 4.85699945296
80 31 0.0796945288157 5.3696149308
80 61 0.0847174317439 3.37021687355
80 67 0.0719484183929 4.76620641071
80 79 0.0534042269332 0.934729980539
80 93 0.069816826988 3.37021687355
80 101 0.0781225891216 4.6736499027
80 167 0.0858417409847 2.80418994162
80 176 0.0885591251836 2.2896114996
80 184 0.086162455198 3.85399044119
80 205 0.0793325892534 2.2896114996
80 210 0.0744258406995 6.33964717314
80 222 0.0653431129017 5.3696149308
80 242 0.0900652855392 6.33964717314
80 329 0.0772592907357 2.80418994162
80 336 0.0745620831465 3.49743933632
80 344 0.0735983427555 5.03367499537
80 356 0.0736462147817 5.3696149308
80 438 0.0731359644319 2.80418994162
80 447 0.0680176756513 3.49743933632
80 549 0.083837520436 4.28347089017
80 559 0.083276634025 3.96572344691
80 576 0.0800358431474 6.0577426269
80 599 0.0729073750667 4.76620641071
80 608 0.0856523231541 5.28763126254
80 688 0.0787497771361 4.85699945296
80 705 0.06885123466 6.0577426269
80 801 0.0755783895054 6.33964717314
80 831 0.0747976272944 5.68574050157
81 46 0.08197101041 5.76206258103
81 69 0.0678952866288 4.18023955419
81 70 0.083337501633 5.03367499537
81 74 0.0787165695094 1.32190781564
81 78 0.100004244494 4.76620641071
81 90 0.0699662848178 1.32190781564
81 98 0.0994309026556 1.86945996108
81 109 0.0741273493332 3.37021687355
81 112 0.0825296585661 5.45036555119
81 118 0.0650787665004 4.18023955419
81 121 0.0773274429424 5.98519219385
81 181 0.0750876301372 1.32190781564
81 182 0.0872268930183 1.61899981765
81 192 0.0717120213702 2.09011977709
81 196 0.0934431309709 5.68574050157
81 202 0.0875540211379 3.10014862574
81 221 0.0704493805863 3.49743933632
81 276 0.0817068591181 5.03367499537
81 282 0.0794582396966 3.37021687355
81 332 0.0750336447833 3.2379996353
81 343 0.0750749664238 4.3842722319
81 345 0.0856639088164 5.76206258103
81 401 0.0785942885138 4.6736499027
81 423 0.0623822853697 4.3842722319
81 425 0.0709995989082 5.76206258103
81 437 0.0818963360816 6.33964717314
81 444 0.0711018088826 3.37021687355
81 445 0.0833586602847 3.96572344691
81 446 0.0712358893402 4.6736499027
81 483 0.0751096378054 5.45036555119
81 536 0.0707425157926 5.60837988324
81 573 0.074327154106 3.85399044119
81 574 0.0824532181361 3.73891992216
81 596 0.082205867084 5.03367499537
81 598 0.0776272677053 6.27035933128
81 612 0.0758797349505 5.98519219385
81 618 0.085435944693 6.0577426269
81 665 0.0666409880426 6.0577426269
81 667 0.0802046465495 6.27035933128
81 684 0.0768408162677 5.3696149308
81 722 0.0843118683452 5.03367499537
82 4 0.0701527869727 1.32190781564
82 9 0.0828698952973 0.934729980539
82 12 0.0801764167208 2.95587573575
82 21 0.100543898294 2.2896114996
82 34 0.0814940635845 5.52993714052
82 40 0.0787437020426 5.3696149308
82 60 0.0720940808557 3.37021687355
82 71 0.0708468693706 5.03367499537
82 91 0.0797934456599 1.32190781564
82 101 0.102602690677 2.64381563127
82 126 0.0750500775018 4.6736499027
82 162 0.0731678841995 3.10014862574
82 173 0.0807012714975 2.2896114996
82 174 0.0844484149435 2.80418994162
82 195 0.0825872335914 3.85399044119
82 203 0.0882969408201 3.10014862574
82 211 0.0890407744691 2.2896114996
82 212 0.0810450896934 2.80418994162
82 225 0.0806662607172 5.52993714052
82 295 0.0870116052901 3.85399044119
82 316 0.0764296926328 3.37021687355
82 331 0.0920648651166 2.64381563127
82 351 0.0819304065453 4.28347089017
82 366 0.0778279852071 6.27035933128
82 402 0.0773693008143 4.6736499027
82 422 0.0817005247721 3.49743933632
82 426 0.0821807128725 5.76206258103
82 446 0.0806359628662 3.96572344691
82 451 0.0818289389624 3.49743933632
82 461 0.0766759044123 3.37021687355
82 474 0.076215502402 4.85699945296
82 541 0.0837707279817 5.45036555119
82 547 0.0787185418388 5.45036555119
82 552 0.0919671532071 4.57922299921
82 726 0.0822033208377 5.76206258103
82 815 0.0823237519553 5.9117514715
82 827 0.0785231865658 5.76206258103
82 839 0.0823904495889 6.27035933128
82 855 0.081453851797 5.9117514715
83 0 0.0713837096406 2.09011977709
83 2 0.0832905241584 2.80418994162
83 4 0.0794063702126 1.61899981765
83 6 0.0780847108688 1.61899981765
83 10 0.0741617246343 0.934729980539
83 29 0.0885940013127 3.10014862574
83 33 0.0748008636391 4.07439352467
83 38 0.0923934225497 3.96572344691
83 41 0.0831886180389 4.85699945296
83 61 0.06830597571 3.37021687355
83 65 0.0832977438496 2.64381563127
83 88 0.0729207003051 4.6736499027
83 102 0.0851003810304 2.64381563127
83 124 0.0752536680655 5.45036555119
83 135 0.0691346820953 5.60837988324
83 154 0.0905060295914 4.28347089017
83 158 0.0850103949744 4.28347089017
83 193 0.0894611544126 1.32190781564
83 201 0.0903155919589 1.32190781564
83 210 0.077077303817 2.2896114996
83 211 0.0813487994206 2.09011977709
83 229 0.0829951719865 4.28347089017
83 234 0.0792305585281 4.76620641071
83 250 0.0659246531458 5.98519219385
83 287 0.085238772037 4.3842722319
83 294 0.0719955381185 2.80418994162
83 313 0.0741301290303 2.09011977709
83 332 0.0704572428737 2.64381563127
83 364 0.0812421754124 5.11972695518
83 374 0.0728809168408 6.20029725149
83 407 0.0707802637383 5.98519219385
83 410 0.0759065512927 4.3842722319
83 415 0.0873358461401 4.85699945296
83 418 0.0899777195977 5.03367499537
83 430 0.0773517953291 4.07439352467
83 433 0.086700806122 2.95587573575
83 456 0.090273816055 3.49743933632
83 476 0.0723230790326 5.45036555119
83 491 0.0742312451983 5.52993714052
83 543 0.0673423152625 5.03367499537
83 566 0.0763390692878 3.85399044119
83 583 0.0802720736797 4.76620641071
83 594 0.0895801912613 4.28347089017
83 599 0.0843212123723 5.60837988324
83 600 0.0762130581829 6.27035933128
83 605 0.0842533152924 5.03367499537
83 722 0.0842959422294 5.3696149308
83 724 0.0733874454524 5.03367499537
83 725 0.0920295895574 5.11972695518
83 727 0.0824254286056 5.76206258103
83 829 0.079733429027 5.98519219385
83 848 0.081999496851 5.98519219385
85 4 0.0939297653858 3.10014862574
85 5 0.0908209979013 2.2896114996
85 9 0.0779858344219 2.95587573575
85 40 0.0640674217424 3.96572344691
85 43 0.0651914707303 4.85699945296
85 52 0.0842488831701 5.28763126254
85 68 0.0733447754095 2.09011977709
85 70 0.0757586471219 2.09011977709
85 105 0.0848087656759 3.37021687355
85 173 0.0930658894288 2.80418994162
85 175 0.0892320072482 2.09011977709
85 176 0.0906920473112 2.2896114996
85 187 0.0805371654515 2.2896114996
85 190 0.0684426049473 3.85399044119
85 194 0.0860607290863 0.934729980539
85 196 0.0845480536716 2.09011977709
85 209 0.0790758163128 4.28347089017
85 218 0.0781135559557 5.52993714052
85 249 0.0821317172905 5.76206258103
85 274 0.0673040275823 5.03367499537
85 279 0.0719592595578 4.57922299921
85 289 0.0830246199401 6.20029725149
85 322 0.0796511686574 3.49743933632
85 331 0.0790763014335 3.85399044119
85 344 0.0759695035839 3.37021687355
85 357 0.0625058172262 4.57922299921
85 372 0.0799294498223 6.20029725149
85 403 0.0665002571249 5.03367499537
85 424 0.0878231479938 3.37021687355
85 457 0.0791887866371 3.10014862574
85 465 0.0785602160016 3.49743933632
85 471 0.080601408851 4.85699945296
85 475 0.0897213868241 4.07439352467
85 487 0.0864992707386 5.45036555119
85 488 0.0741984145563 5.98519219385
85 493 0.084490536542 5.52993714052
85 537 0.0778132309445 5.3696149308
85 547 0.0780011420128 4.6736499027
85 577 0.0841249330306 3.85399044119
85 583 0.0877177869093 6.0577426269
85 597 0.082789896174 4.18023955419
85 612 0.0621729496244 5.3696149308
85 621 0.0785803853889 5.98519219385
85 743 0.0881502421519 6.0577426269
85 809 0.0679234877683 6.33964717314
85 827 0.0830260899765 5.98519219385
85 831 0.0834416304376 5.98519219385
86 8 0.0943134574263 1.32190781564
86 34 0.0782530743455 3.10014862574
86 54 0.0956756938582 4.18023955419
86 87 0.0805607553546 0.934729980539
86 92 0.0919481241736 2.09011977709
86 95 0.0826868202441 1.32190781564
86 97 0.0856305653575 5.9117514715
86 99 0.0883735632002 4.18023955419
86 102 0.0724552507466 2.09011977709
86 104 0.0874821357962 2.09011977709
86 118 0.0885756216703 4.6736499027
86 123 0.080010413148 4.18023955419
86 127 0.0792439159487 5.45036555119
86 206 0.0909809882426 2.2896114996
86 209 0.0887248096921 5.11972695518
86 224 0.0565272121084 2.95587573575
86 227 0.0743145796235 4.07439352467
86 244 0.0868475883524 4.85699945296
86 273 0.0713183185527 6.27035933128
86 296 0.0670352594053 2.64381563127
86 305 0.0909270328 2.2896114996
86 315 0.0722986800783 2.64381563127
86 355 0.0713480474923 4.28347089017
86 402 0.076603518796 5.98519219385
86 413 0.0893497578699 4.3842722319
86 428 0.0808922006931 4.3842722319
86 430 0.0901300172616 6.33964717314
86 442 0.0945647234793 5.45036555119
86 449 0.0751435021332 3.37021687355
86 450 0.0739997603451 3.96572344691
86 451 0.0752453366744 6.33964717314
86 476 0.0736384301797 4.07439352467
86 545 0.078337116655 5.45036555119
86 571 0.0831115165581 4.28347089017
86 579 0.0795422899621 3.73891992216
86 586 0.0838970264204 4.28347089017
86 678 0.0884020437463 5.45036555119
86 706 0.0825911166013 4.76620641071
86 737 0.0929822656073 5.76206258103
86 866 0.0758601524952 6.33964717314
87 6 0.0820977376431 3.10014862574
87 7 0.0651377480499 2.2896114996
87 37 0.0758209970554 5.3696149308
87 49 0.0726696426499 5.98519219385
87 60 0.0874114840195 3.96572344691
87 86 0.0873492403954 0.934729980539
87 99 0.068947548717 5.03367499537
87 103 0.0989012532514 2.09011977709
87 107 0.0733818605198 6.27035933128
87 121 0.0859484657154 3.85399044119
87 168 0.085418875614 2.95587573575
87 172 0.0639142964351 5.11972695518
87 203 0.0803535470438 2.2896114996
87 206 0.0930628974184 1.61899981765
87 216 0.0855391843311 2.2896114996
87 226 0.0900485849009 3.10014862574
87 277 0.0654988232603 4.57922299921
87 288 0.0678696352492 3.37021687355
87 318 0.075171805141 1.86945996108
87 329 0.0663410500542 2.80418994162
87 346 0.0868836931425 3.37021687355
87 375 0.0769590170572 5.98519219385
87 425 0.0798868853665 3.49743933632
87 449 0.0837923559048 2.95587573575
87 465 0.0811688791266 3.49743933632
87 575 0.0712663712219 5.98519219385
87 607 0.0852797736431 4.6736499027
87 838 0.0685879939791 6.27035933128
87 849 0.110324088651 5.76206258103
87 852 0.0782062622727 5.98519219385
88 9 0.0730828776137 5.68574050157
88 44 0.0697042451503 5.52993714052
88 66 0.0701957164068 5.9117514715
88 70 0.0714175796886 2.64381563127
88 76 0.0653808794992 3.85399044119
88 94 0.0699184973449 2.09011977709
88 103 0.0833906196097 2.64381563127
88 156 0.0912606703132 6.0577426269
88 187 0.0587118381827 1.61899981765
88 214 0.0846782753543 2.80418994162
88 224 0.0850802460748 3.49743933632
88 226 0.0715055226981 2.95587573575
88 298 0.0923198454187 2.64381563127
88 348 0.0778547000636 3.49743933632
88 423 0.0729790570086 5.03367499537
88 457 0.0684007408947 3.49743933632
88 458 0.0967835169551 3.10014862574
88 476 0.069405516145 4.07439352467
88 477 0.0798996492789 3.96572344691
88 494 0.0738928660459 5.52993714052
88 560 0.0865130884107 4.18023955419
88 569 0.0671936952414 4.28347089017
88 615 0.0656819214154 5.3696149308
88 678 0.0822071307461 5.76206258103
88 686 0.0816818201544 5.76206258103
88 689 0.0923438039539 5.03367499537
88 715 0.0860614444086 6.0577426269
88 718 0.0820205279515 4.85699945296
88 831 0.0684368525118 5.76206258103
88 833 0.0707054829677 5.76206258103
88 841 0.0783283339986 5.68574050157
88 850 0.093250695065 5.76206258103
88 860 0.0865917547184 5.98519219385
90 7 0.0813696638148 3.49743933632
90 21 0.0815828164179 1.61899981765
90 50 0.0771786041903 5.76206258103
90 78 0.0813066744937 4.18023955419
90 83 0.0751557798774 1.32190781564
90 97 0.0800443008257 2.09011977709
90 100 0.0982161069194 1.32190781564
90 134 0.0703175965796 4.6736499027
90 181 0.0838195866368 2.2896114996
90 182 0.0705107502801 2.09011977709
90 185 0.0739962973099 3.49743933632
90 195 0.076699160029 3.96572344691
90 208 0.0685413201269 2.2896114996
90 212 0.0874188231119 2.2896114996
90 215 0.0862418991474 4.85699945296
90 233 0.0826326712545 4.07439352467
90 297 0.0672861160643 5.76206258103
90 412 0.0720979775821 4.76620641071
90 415 0.0858912122668 5.98519219385
90 431 0.0969420277275 3.49743933632
90 447 0.0869688281895 4.76620641071
90 506 0.0863065591514 6.33964717314
90 586 0.0807140826189 4.18023955419
90 618 0.0770595578036 5.28763126254
90 691 0.0691980654389 5.3696149308
90 827 0.0822135728441 5.98519219385
91 16 0.0749006128488 0.934729980539
91 21 0.0753809381661 2.2896114996
91 22 0.0813886013971 1.61899981765
91 25 0.0680144644813 2.2896114996
91 39 0.0802384697644 3.49743933632
91 49 0.0854362742771 5.11972695518
91 59 0.087606767242 3.73891992216
91 65 0.0916302680149 3.37021687355
91 96 0.0729742066166 4.6736499027
91 152 0.0725849691759 6.0577426269
91 175 0.0787417968453 3.49743933632
91 182 0.0986293169948 2.2896114996
91 184 0.0917771027831 2.2896114996
91 191 0.0746094400992 1.61899981765
91 195 0.0957345668983 3.10014862574
91 197 0.0750998319824 4.85699945296
91 201 0.0890392605297 0.934729980539
91 209 0.0691343709754 2.2896114996
91 226 0.079902965465 5.11972695518
91 235 0.0841405149565 4.76620641071
91 249 0.0912151507297 4.85699945296
91 284 0.0898493601266 4.18023955419
91 300 0.0784640760134 3.85399044119
91 363 0.0807486669309 4.18023955419
91 364 0.0908424090573 4.28347089017
91 420 0.0901055291898 4.3842722319
91 427 0.0797815139902 6.12943438421
91 440 0.0910993026275 4.76620641071
91 499 0.0825512045556 5.45036555119
91 544 0.0744075875829 5.3696149308
91 573 0.0737977081159 4.76620641071
91 692 0.0796811750578 5.3696149308
91 715 0.090983448253 4.76620641071
91 739 0.0822945722962 5.52993714052
91 749 0.0924997605164 6.0577426269
91 854 0.0745853598027 5.98519219385
91 856 0.0718577502786 5.68574050157
91 872 0.0796665649259 6.27035933128
92 44 0.0869999247351 3.96572344691
92 50 0.0878078330634 5.76206258103
92 59 0.0720131935568 3.85399044119
92 74 0.0808713818698 2.64381563127
92 99 0.0665913572744 2.09011977709
92 106 0.0679913069956 4.18023955419
92 141 0.0811654598059 5.68574050157
92 159 0.0694481343475 5.11972695518
92 164 0.067588507725 3.96572344691
92 168 0.0864617387493 4.76620641071
92 177 0.0837767204848 4.07439352467
92 207 0.0833441936717 4.76620641071
92 224 0.0725693727713 2.80418994162
92 257 0.0782902285133 5.76206258103
92 291 0.0765473267716 4.3842722319
92 292 0.0883196869976 3.85399044119
92 297 0.0968867373205 4.3842722319
92 298 0.0801693452298 5.03367499537
92 299 0.0748014684792 5.3696149308
92 309 0.0721866367193 5.3696149308
92 314 0.0742237467166 2.2896114996
92 319 0.0881320149198 4.28347089017
92 337 0.0754005939754 4.28347089017
92 365 0.0746483206923 4.28347089017
92 370 0.0761253679051 5.76206258103
92 410 0.0747517497324 5.45036555119
92 428 0.0809508480043 6.12943438421
92 439 0.088968567614 5.76206258103
92 447 0.0877542770426 3.49743933632
92 449 0.0973818681838 4.76620641071
92 460 0.0756165031771 5.45036555119
92 491 0.0837238712564 4.6736499027
92 539 0.0812370261174 6.27035933128
92 589 0.080537861827 4.6736499027
92 674 0.0781875650851 6.27035933128
92 721 0.0695427806178 6.0577426269
92 737 0.0716832965985 6.27035933128
92 835 0.0742273856886 6.33964717314
92 836 0.0770784262961 5.98519219385
93 6 0.0774651749244 2.2896114996
93 9 0.0753516825471 3.10014862574
93 11 0.0842399682627 1.61899981765
93 29 0.0863940196261 3.49743933632
93 32 0.0701861162724 2.09011977709
93 35 0.0851031701664 4.76620641071
93 37 0.0771962890724 3.49743933632
93 61 0.079583928423 3.73891992216
93 70 0.0810857673471 2.95587573575
93 71 0.0863140342866 3.37021687355
93 73 0.0557160586906 4.18023955419
93 74 0.0755563442043 3.37021687355
93 77 0.0839486511942 1.86945996108
93 104 0.064846005654 2.09011977709
93 114 0.0807851623453 3.37021687355
93 127 0.0904152012533 4.18023955419
93 139 0.0805243031816 5.03367499537
93 170 0.075907379959 5.52993714052
93 179 0.0859257681939 5.98519219385
93 194 0.0713729896976 1.32190781564
93 198 0.0770860093815 3.96572344691
93 220 0.0719638403059 3.49743933632
93 232 0.0797330174672 3.10014862574
93 239 0.0892007986039 4.76620641071
93 249 0.0817927993567 4.85699945296
93 283 0.0777221406249 5.03367499537
93 287 0.0621379913613 4.28347089017
93 294 0.0625476951907 3.49743933632
93 297 0.0736332368249 3.85399044119
93 316 0.0895316668751 2.09011977709
93 326 0.0934237001416 2.09011977709
93 328 0.0852429447921 3.37021687355
93 331 0.0701835127122 3.49743933632
93 334 0.0828585148293 2.09011977709
93 373 0.0720915001329 5.11972695518
93 403 0.0774857180705 5.76206258103
93 437 0.0760656706357 3.85399044119
93 459 0.0871425659335 3.96572344691
93 472 0.082957574362 3.85399044119
93 477 0.0746309395187 4.3842722319
93 482 0.0699144117799 4.3842722319
93 501 0.0744755463609 5.45036555119
93 553 0.0732501242961 5.98519219385
93 555 0.0829658775448 5.03367499537
93 557 0.0861451968097 4.6736499027
93 563 0.0861700552072 6.27035933128
93 726 0.0871420263107 4.76620641071
93 728 0.0804957876074 5.11972695518
93 730 0.0698753048912 6.0577426269
93 861 0.0800573008115 6.33964717314
94 3 0.0907938952162 2.95587573575
94 6 0.0755625920438 2.80418994162
94 16 0.0694340040766 2.95587573575
94 23 0.073934583125 3.10014862574
94 74 0.0761047018012 4.18023955419
94 99 0.0678336945718 3.85399044119
94 112 0.0897722841184 1.86945996108
94 163 0.0778330741548 5.3696149308
94 165 0.0865054743091 4.28347089017
94 214 0.0882103792572 1.32190781564
94 221 0.0718847057978 3.49743933632
94 238 0.0839563207835 6.0577426269
94 291 0.0844218559838 5.76206258103
94 300 0.0864589928002 6.20029725149
94 328 0.0772027273169 2.64381563127
94 340 0.0647431803066 5.3696149308
94 353 0.0893552819941 4.3842722319
94 359 0.0739132766123 4.3842722319
94 438 0.0866688375609 3.85399044119
94 540 0.0717367767741 6.0577426269
94 568 0.0668185571421 4.28347089017
94 584 0.0709526337084 5.98519219385
94 585 0.078038611364 5.28763126254
94 598 0.0848552904781 3.85399044119
94 600 0.0725453579035 4.28347089017
94 688 0.0708594878654 5.52993714052
94 704 0.0819220911948 6.0577426269
94 707 0.0845509964273 4.76620641071
94 723 0.0743301263213 6.0577426269
94 729 0.0814596667433 5.11972695518
94 737 0.0792943442415 5.3696149308
94 750 0.0845410870784 6.0577426269
94 866 0.0785272054869 5.98519219385
94 876 0.0701566730241 6.33964717314
95 34 0.0820924158199 2.09011977709
95 37 0.0949524679868 4.76620641071
95 77 0.0867688446605 2.64381563127
95 91 0.072762271349 3.73891992216
95 92 0.0877355785812 2.80418994162
95 107 0.0813874515109 5.9117514715
95 108 0.0857824678893 5.03367499537
95 120 0.0808720984328 3.37021687355
95 168 0.0786938702274 3.85399044119
95 182 0.0850237433141 5.11972695518
95 191 0.0695047431248 4.85699945296
95 193 0.0713599877606 3.10014862574
95 201 0.0627884427939 3.85399044119
95 226 0.0807214342638 2.2896114996
95 253 0.0986157354667 4.85699945296
95 296 0.0824848733777 3.49743933632
95 298 0.0815536619238 3.49743933632
95 303 0.0870349033963 4.57922299921
95 320 0.0799044346103 2.80418994162
95 336 0.0795239420162 2.09011977709
95 368 0.0768448901398 4.28347089017
95 432 0.0733286013824 5.76206258103
95 446 0.0824537171672 3.49743933632
95 465 0.0875563851241 3.10014862574
95 487 0.080173357235 4.07439352467
95 548 0.0795124126709 5.3696149308
95 575 0.0801184523921 6.0577426269
95 613 0.0918257718064 5.03367499537
95 615 0.0692692535887 4.6736499027
95 617 0.072311493324 5.03367499537
95 622 0.068621261451 5.3696149308
95 679 0.084687606902 5.98519219385
95 705 0.0870696859772 5.52993714052
95 729 0.0718530722965 4.85699945296
95 841 0.0685873338544 5.68574050157
95 862 0.0851478266238 5.98519219385
96 30 0.0722586096316 5.11972695518
96 36 0.072791857415 6.33964717314
96 78 0.0706516539422 2.64381563127
96 79 0.077139180056 2.09011977709
96 112 0.0632258189678 2.64381563127
96 119 0.0804155589294 4.6736499027
96 120 0.071572962688 3.96572344691
96 122 0.0876285688101 2.95587573575
96 167 0.0984782027267 4.28347089017
96 188 0.0755966696505 2.09011977709
96 196 0.0802311084216 1.61899981765
96 222 0.0685816545848 4.28347089017
96 227 0.0826588107766 2.2896114996
96 259 0.0838222890564 5.76206258103
96 347 0.0698273574891 2.64381563127
96 375 0.07401731628 5.3696149308
96 549 0.0913751727987 5.3696149308
96 557 0.0777179653272 5.45036555119
96 566 0.0624772109432 6.27035933128
96 569 0.0869981893418 4.57922299921
96 604 0.0714311016177 5.60837988324
96 707 0.0635396984149 5.11972695518
96 716 0.0832639534646 5.45036555119
96 735 0.075942851515 5.3696149308
96 744 0.0805070605202 5.52993714052
96 833 0.0774261204898 5.98519219385
97 4 0.0819031110907 3.49743933632
97 16 0.0739556624678 3.10014862574
97 28 0.0762766784611 1.61899981765
97 49 0.0813458499392 6.0577426269
97 52 0.0920189093356 5.68574050157
97 60 0.0928371573741 5.98519219385
97 63 0.087966260092 3.85399044119
97 99 0.0681451725085 1.86945996108
97 155 0.0902381058591 5.98519219385
97 161 0.0831892498976 4.76620641071
97 173 0.078015238822 4.76620641071
97 185 0.0895658217094 5.52993714052
97 234 0.0851948310242 5.98519219385
97 301 0.0959471418693 3.49743933632
97 324 0.0842929619492 4.28347089017
97 334 0.0870976841159 5.03367499537
97 341 0.0859871137857 2.80418994162
97 365 0.0881433018623 5.76206258103
97 451 0.0888940886674 2.95587573575
97 473 0.0660760978311 4.76620641071
97 484 0.0829532857118 5.76206258103
97 489 0.0787653961618 4.3842722319
97 541 0.0721050621827 6.0577426269
97 563 0.0825613373787 4.6736499027
97 628 0.0759859546858 5.98519219385
97 635 0.0831289766166 6.0577426269
97 713 0.0804095385068 5.11972695518
97 823 0.0925955780437 6.33964717314
97 846 0.0746213325396 5.98519219385
98 5 0.0847597457813 3.49743933632
98 32 0.0803407080291 3.96572344691
98 44 0.0702679895137 4.76620641071
98 57 0.0704672876476 4.6736499027
98 78 0.0781355396366 5.45036555119
98 83 0.0986182556315 2.64381563127
98 135 0.0924580501941 4.18023955419
98 136 0.0696856888099 4.6736499027
98 152 0.0810033650131 5.98519219385
98 166 0.0790290903295 6.0577426269
98 176 0.08594945028 6.0577426269
98 201 0.0890684017225 2.2896114996
98 223 0.0668872733656 3.96572344691
98 274 0.0924893749218 5.98519219385
98 280 0.0739479011099 5.3696149308
98 291 0.0805690513538 4.18023955419
98 311 0.0723147304026 2.80418994162
98 312 0.0780431400894 2.64381563127
98 321 0.0920159477293 2.09011977709
98 356 0.0856285622786 5.3696149308
98 361 0.0863617184262 3.37021687355
98 430 0.0838551418671 4.07439352467
98 446 0.084882710374 5.03367499537
98 454 0.0803906847269 3.49743933632
98 456 0.0859153735862 4.76620641071
98 461 0.0744973863374 2.95587573575
98 480 0.0898499682285 3.37021687355
98 489 0.065612806343 4.07439352467
98 491 0.082148328675 4.85699945296
98 497 0.0805477403873 4.6736499027
98 553 0.0874467274531 5.28763126254
98 593 0.0786470406469 3.73891992216
98 604 0.0890258049731 4.76620641071
98 620 0.0773751948057 5.45036555119
98 704 0.0800631829043 5.11972695518
98 871 0.08087125924 5.98519219385
101 4 0.0870090451708 3.49743933632
101 18 0.0727049121734 1.61899981765
101 33 0.0901164210283 2.2896114996
101 43 0.0871867754464 2.95587573575
101 77 0.0678551385829 2.95587573575
101 91 0.0706637235147 1.32190781564
101 92 0.0798591349998 0.934729980539
101 120 0.0845455901507 2.09011977709
101 121 0.0775884836645 2.64381563127
101 136 0.0837197423103 3.73891992216
101 144 0.0945810348638 5.03367499537
101 172 0.0782634121801 4.28347089017
101 188 0.0885073146923 4.76620641071
101 189 0.0866636918604 4.28347089017
101 205 0.0644520968884 3.10014862574
101 223 0.0697177064807 1.61899981765
101 225 0.0699260010489 3.10014862574
101 238 0.0689737443608 4.07439352467
101 240 0.0827462013662 3.10014862574
101 275 0.0824631891714 5.98519219385
101 284 0.0807204178489 5.11972695518
101 294 0.0831805387899 4.18023955419
101 324 0.0933764746258 2.09011977709
101 334 0.0751972025942 2.09011977709
101 335 0.0715330719198 2.64381563127
101 338 0.0819425870654 5.03367499537
101 340 0.0725755154229 3.49743933632
101 343 0.0791806590669 2.09011977709
101 353 0.06522093331 2.80418994162
101 355 0.0843684240649 2.80418994162
101 357 0.0812491330483 3.85399044119
101 366 0.081456238872 3.85399044119
101 422 0.101321002682 4.76620641071
101 426 0.0775138703288 5.45036555119
101 433 0.0749338576067 4.07439352467
101 434 0.103066356602 3.96572344691
101 436 0.0921941993312 4.3842722319
101 447 0.0806941089759 3.85399044119
101 455 0.0811448688314 2.95587573575
101 498 0.0739903567822 5.03367499537
101 503 0.0787369820873 5.45036555119
101 508 0.077078743986 5.52993714052
101 517 0.0817299071458 6.27035933128
101 553 0.0631480704178 5.98519219385
101 567 0.0815875097274 4.6736499027
101 585 0.0811697108581 4.28347089017
101 590 0.0749419019702 5.3696149308
101 605 0.0764818534519 3.96572344691
101 630 0.0765669118365 5.3696149308
101 684 0.071756376435 6.0577426269
101 694 0.0771928041722 5.52993714052
101 734 0.0826882710855 4.85699945296
101 757 0.0931306321531 6.0577426269
101 838 0.0824390823449 5.9117514715
103 3 0.0786795783103 3.85399044119
103 12 0.0930005285673 2.2896114996
103 22 0.0643725640507 3.85399044119
103 29 0.08997686897 3.96572344691
103 93 0.08196997596 1.32190781564
103 108 0.0709053527574 3.85399044119
103 113 0.0841496763464 1.32190781564
103 175 0.0820909197555 3.96572344691
103 197 0.0662957438566 2.80418994162
103 222 0.0913450551698 2.2896114996
103 227 0.0620895297648 3.10014862574
103 235 0.0733143047785 2.2896114996
103 240 0.0768691864841 4.07439352467
103 241 0.0992740933274 3.49743933632
103 276 0.0942311841341 6.20029725149
103 295 0.0855843702161 4.28347089017
103 311 0.0813794644968 6.20029725149
103 314 0.0834482156205 3.85399044119
103 342 0.0834932904829 3.49743933632
103 389 0.0779853804779 5.9117514715
103 443 0.101995557438 5.03367499537
103 446 0.085796550039 3.49743933632
103 449 0.0775034476221 3.85399044119
103 452 0.078582891604 5.52993714052
103 457 0.0959293951012 2.95587573575
103 481 0.0798467602165 5.03367499537
103 487 0.0889740841735 3.85399044119
103 501 0.0678137498779 4.76620641071
103 558 0.0727652082839 5.28763126254
103 585 0.0781077506112 5.3696149308
103 605 0.0606470906207 3.96572344691
103 617 0.0822137616082 5.03367499537
103 618 0.1020825879 5.98519219385
103 620 0.088602214477 5.03367499537
103 689 0.0789245556675 6.27035933128
103 696 0.0726105544687 5.52993714052
103 699 0.0710694976553 5.76206258103
103 730 0.0753055523193 5.45036555119
103 734 0.0761530123152 4.85699945296
103 748 0.077038544257 6.12943438421
103 870 0.0673113563065 6.33964717314
103 883 0.0858057476068 6.27035933128
104 8 0.0849826118412 3.10014862574
104 32 0.0887174181372 2.2896114996
104 77 0.0705645615082 3.37021687355
104 78 0.076216923127 2.95587573575
104 119 0.0806292098035 3.37021687355
104 122 0.0850991537123 1.86945996108
104 127 0.0785092338235 4.6736499027
104 132 0.0768615750185 2.95587573575
104 168 0.0812106127253 4.76620641071
104 216 0.0745830772817 1.32190781564
104 317 0.073294606883 2.80418994162
104 351 0.0742763879645 6.20029725149
104 354 0.0709914834106 3.85399044119
104 369 0.0773535941941 3.85399044119
104 439 0.0771555118016 4.3842722319
104 461 0.0726464370325 5.45036555119
104 483 0.086948812731 4.3842722319
104 490 0.0681587133751 5.45036555119
104 500 0.0834004318727 5.45036555119
104 502 0.077431710247 4.76620641071
104 561 0.081692895492 5.60837988324
104 571 0.0651735708568 4.76620641071
104 621 0.0644663769763 5.03367499537
104 696 0.0764151855836 5.76206258103
104 698 0.0611990655088 5.45036555119
104 700 0.0839237679587 5.76206258103
104 718 0.0719867602408 4.76620641071
104 720 0.0887546528865 5.11972695518
104 733 0.0732951991977 5.52993714052
104 736 0.0798816670277 4.76620641071
104 762 0.0835875570241 6.0577426269
104 852 0.0729585443625 5.98519219385
105 19 0.0851501613858 2.2896114996
105 25 0.0962928765569 2.95587573575
105 32 0.0753409881611 3.10014862574
105 33 0.0827778529227 2.2896114996
105 36 0.0725250854936 5.98519219385
105 40 0.074707030883 2.80418994162
105 96 0.0631613623562 0.934729980539
105 128 0.0805981484415 4.6736499027
105 142 0.0794672889071 5.98519219385
105 168 0.076665333102 4.85699945296
105 193 0.0783243763151 4.28347089017
105 264 0.0740956226151 5.98519219385
105 303 0.0742353652834 5.76206258103
105 306 0.0694777810503 3.85399044119
105 308 0.0910995361342 3.37021687355
105 319 0.0884277422982 2.64381563127
105 337 0.0809134345596 1.86945996108
105 338 0.0885716137864 2.09011977709
105 414 0.0701749367171 6.12943438421
105 462 0.0654691670768 5.45036555119
105 467 0.0834044578188 2.80418994162
105 504 0.0663023037126 4.6736499027
105 520 0.0926206192426 6.33964717314
105 600 0.0923835069285 3.73891992216
105 607 0.0923538912388 3.96572344691
105 608 0.0665562307386 3.85399044119
105 622 0.0842405909009 5.03367499537
105 710 0.0792323906035 5.11972695518
105 727 0.0921347919245 5.03367499537
105 752 0.088939259238 5.52993714052
106 16 0.0822700081507 3.49743933632
106 35 0.0927776791806 1.61899981765
106 41 0.0784737089812 2.80418994162
106 55 0.0796803953827 5.68574050157
106 74 0.0936531944693 4.18023955419
106 100 0.0787196246674 2.95587573575
106 130 0.0828441588821 5.9117514715
106 137 0.0970735566488 5.45036555119
106 161 0.0900254337905 5.68574050157
106 180 0.0766516038128 3.85399044119
106 199 0.0843784766815 2.2896114996
106 200 0.0914413494649 2.80418994162
106 208 0.0866617099343 1.32190781564
106 209 0.064111280355 1.61899981765
106 219 0.0796096846671 1.32190781564
106 220 0.0847905927884 2.09011977709
106 239 0.0820694681977 2.80418994162
106 312 0.0897201354233 3.49743933632
106 316 0.0941879793624 5.76206258103
106 350 0.0857132246812 2.09011977709
106 362 0.0833192624324 3.2379996353
106 441 0.0878258924167 3.96572344691
106 464 0.0874630601844 5.52993714052
106 484 0.0844631238183 5.52993714052
106 489 0.0864164350541 3.85399044119
106 497 0.0624137540356 4.07439352467
106 507 0.0803338221545 5.03367499537
106 508 0.0772742178645 5.45036555119
106 515 0.0812875382365 5.76206258103
106 562 0.0893084344532 5.3696149308
106 636 0.0739111604542 5.60837988324
106 637 0.0919684561301 5.98519219385
106 691 0.084379418487 5.98519219385
106 704 0.0579912566996 5.76206258103
106 731 0.087836935842 5.03367499537
106 854 0.0885999321026 5.76206258103
106 863 0.0847959444413 5.9117514715
108 6 0.0900291329957 4.28347089017
108 16 0.0811080680505 2.2896114996
108 24 0.0787818650277 2.2896114996
108 38 0.0790121739803 2.2896114996
108 40 0.0737075087052 3.96572344691
108 50 0.0849514319212 3.96572344691
108 98 0.0869703859461 1.32190781564
108 104 0.0793861939686 4.76620641071
108 139 0.0789279390712 5.45036555119
108 148 0.0706620005994 5.45036555119
108 174 0.0819930850045 5.11972695518
108 190 0.0924089519151 3.10014862574
108 195 0.0799409323426 4.76620641071
108 200 0.0725004418048 2.09011977709
108 209 0.0753133911775 1.61899981765
108 216 0.0749234895211 5.76206258103
108 246 0.0908931287744 3.49743933632
108 256 0.077945148809 4.28347089017
108 262 0.0691269066305 5.11972695518
108 266 0.0916941797031 5.76206258103
108 285 0.0751468311764 6.20029725149
108 292 0.0799194155455 5.03367499537
108 302 0.101634154763 4.18023955419
108 346 0.0741728716219 5.03367499537
108 353 0.0741629160057 2.2896114996
108 378 0.0736377334417 4.18023955419
108 392 0.0777342101767 5.98519219385
108 411 0.0745625078259 6.27035933128
108 422 0.0764725624114 5.52993714052
108 440 0.0650571599284 4.85699945296
108 456 0.0729364317335 4.3842722319
108 466 0.0932018534029 5.52993714052
108 471 0.0750712838424 2.80418994162
108 473 0.068714757625 3.37021687355
108 493 0.0979365263754 5.03367499537
108 587 0.0803463176905 5.03367499537
108 623 0.0920197693645 6.27035933128
108 716 0.0957309429578 5.76206258103
108 755 0.0665254152187 5.52993714052
108 836 0.0717032424548 6.27035933128
110 3 0.0894674817331 5.11972695518
110 5 0.0831264206218 3.96572344691
110 9 0.0792464041127 3.49743933632
110 25 0.0785559515477 1.61899981765
110 29 0.0797358727593 2.09011977709
110 32 0.0772634700384 1.32190781564
110 58 0.0858306818604 5.9117514715
110 65 0.0705451484019 5.45036555119
110 71 0.0845507263232 5.45036555119
110 79 0.0923159574728 4.6736499027
110 89 0.0781674011498 3.37021687355
110 98 0.0837439228087 2.95587573575
110 99 0.0705603546065 2.09011977709
110 107 0.0882288977686 2.80418994162
110 109 0.084410753601 0.934729980539
110 116 0.0757596090212 2.95587573575
110 122 0.0788814305725 2.95587573575
110 126 0.0901214700074 2.64381563127
110 128 0.0893391556935 1.86945996108
110 167 0.0993744298692 5.98519219385
110 170 0.0824493900063 6.0577426269
110 202 0.0706468243215 2.09011977709
110 214 0.0750841593653 2.2896114996
110 231 0.0822684046263 1.61899981765
110 247 0.0769237232506 3.49743933632
110 251 0.0823806645327 3.49743933632
110 292 0.08401287899 5.3696149308
110 314 0.0737595392516 3.49743933632
110 340 0.081671104161 3.37021687355
110 352 0.0900771718643 2.80418994162
110 360 0.0821796739356 4.57922299921
110 361 0.0856650129558 3.85399044119
110 379 0.0779300080035 4.28347089017
110 381 0.0796584213458 4.28347089017
110 483 0.0776858199192 2.95587573575
110 569 0.0791479064651 5.60837988324
110 574 0.0751278947039 5.45036555119
110 584 0.0916198615718 5.03367499537
110 597 0.0755079897874 3.96572344691
110 719 0.0885818279522 6.27035933128
110 761 0.0898036753972 6.12943438421
110 848 0.0874209487018 5.98519219385
110 866 0.0736999562985 5.68574050157
111 21 0.0765544899344 3.96572344691
111 29 0.0690304511636 2.95587573575
111 39 0.0722390870305 1.32190781564
111 91 0.0689487625428 2.64381563127
111 102 0.0824627125293 0.934729980539
111 125 0.0824245921083 4.18023955419
111 137 0.0752109668133 2.80418994162
111 188 0.0811279557195 4.76620641071
111 195 0.0710701910841 3.10014862574
111 205 0.085440518963 2.80418994162
111 218 0.0812637163308 4.76620641071
111 254 0.0962359799313 4.76620641071
111 261 0.0662390472655 5.11972695518
111 267 0.0807997632785 5.76206258103
111 309 0.0777984040257 5.60837988324
111 333 0.0817424346987 2.2896114996
111 334 0.0819406825996 2.09011977709
111 340 0.0876908711589 4.18023955419
111 362 0.0807490960879 3.85399044119
111 375 0.0884272295736 3.49743933632
111 392 0.0881034563424 6.20029725149
111 423 0.0740099361129 5.52993714052
111 444 0.0800336142226 4.3842722319
111 479 0.076166695469 5.52993714052
111 482 0.0866483870037 3.49743933632
111 510 0.0813541004787 4.6736499027
111 524 0.094292413383 6.33964717314
111 584 0.0708642910838 5.60837988324
111 597 0.0773015265185 3.85399044119
111 599 0.0785130134552 4.28347089017
111 739 0.0762884121985 5.52993714052
111 840 0.0842353032978 6.33964717314
111 857 0.0858792779999 5.76206258103
111 883 0.075880726231 5.98519219385
112 2 0.078631426141 4.85699945296
112 3 0.0753569816208 4.76620641071
112 16 0.0891348106357 3.49743933632
112 34 0.0818969018016 1.32190781564
112 40 0.0899524724603 1.32190781564
112 120 0.0844015416593 1.32190781564
112 174 0.0967376968787 5.11972695518
112 177 0.0824200502801 4.85699945296
112 194 0.0762255069413 3.10014862574
112 195 0.0784890368873 2.95587573575
112 225 0.0759430354405 1.32190781564
112 231 0.071710857118 3.10014862574
112 251 0.0816739427443 2.95587573575
112 259 0.0755069926387 3.96572344691
112 286 0.0855400999626 5.98519219385
112 307 0.0840065865268 4.28347089017
112 325 0.0867133368619 2.80418994162
112 361 0.0734276007218 5.3696149308
112 365 0.0687620523827 2.80418994162
112 366 0.0877956488745 2.64381563127
112 367 0.0754709473172 2.80418994162
112 386 0.0750608499712 5.76206258103
112 475 0.0867616131349 2.80418994162
112 630 0.0956900166614 4.76620641071
112 632 0.0808373149722 4.76620641071
112 638 0.0803761208987 5.60837988324
112 715 0.0819117692264 5.3696149308
112 753 0.0828700057026 5.3696149308
112 762 0.0845484027836 5.76206258103
112 869 0.0745018610388 5.9117514715
112 874 0.0893259204224 5.76206258103
113 5 0.0885385100766 5.3696149308
113 36 0.071175952797 4.85699945296
113 39 0.0755525607904 2.2896114996
113 40 0.0768830754889 1.61899981765
113 81 0.0656969601473 6.27035933128
113 82 0.070906655226 5.45036555119
113 90 0.0820158193619 5.03367499537
113 117 0.0909869071083 4.76620641071
113 118 0.087176738573 3.85399044119
113 120 0.0640160914786 2.09011977709
113 127 0.0809342811597 4.18023955419
113 136 0.0900786636334 3.96572344691
113 143 0.084151146317 4.18023955419
113 148 0.073513956848 5.03367499537
113 190 0.0958597952186 6.33964717314
113 219 0.0855479498133 5.68574050157
113 232 0.0672460811107 3.10014862574
113 236 0.0864416965747 1.61899981765
113 240 0.0781124314651 4.28347089017
113 259 0.0696618723964 3.85399044119
113 325 0.0912162040316 3.2379996353
113 330 0.0908185049603 5.98519219385
113 335 0.0792558269404 2.2896114996
113 345 0.0821992857682 2.09011977709
113 348 0.0930399342867 2.64381563127
113 353 0.0655778061886 4.28347089017
113 366 0.0739174604397 2.80418994162
113 376 0.0769546899222 3.37021687355
113 381 0.0909997706211 4.57922299921
113 425 0.0708073428554 5.52993714052
113 436 0.0836873170706 4.76620641071
113 456 0.079819774979 3.85399044119
113 462 0.0753867368031 4.76620641071
113 480 0.0829993498103 6.33964717314
113 498 0.0675153690355 6.12943438421
113 501 0.0967578398758 4.3842722319
113 505 0.0699709901977 4.3842722319
113 510 0.0803356433724 5.03367499537
113 568 0.0795536219373 5.60837988324
113 571 0.0847634774519 5.3696149308
113 585 0.0778877785186 6.27035933128
113 586 0.0754558551345 5.03367499537
113 591 0.0721149343336 4.57922299921
113 631 0.0833417914418 4.76620641071
113 650 0.0812656678068 5.98519219385
113 705 0.0731454394949 6.12943438421
113 867 0.0718893914833 5.68574050157
114 12 0.0749921667784 4.07439352467
114 16 0.0800721811851 5.11972695518
114 34 0.0778522915965 1.32190781564
114 48 0.0707372884837 4.76620641071
114 80 0.0818868914563 3.73891992216
114 118 0.081306904791 4.76620641071
114 216 0.0785522981582 1.32190781564
114 232 0.086918772252 3.96572344691
114 242 0.0782940526866 3.49743933632
114 298 0.0784214900163 5.03367499537
114 317 0.0860437271379 3.85399044119
114 320 0.0688955041473 3.49743933632
114 323 0.0772330248704 5.3696149308
114 327 0.0764453440941 2.80418994162
114 344 0.0854734966771 3.37021687355
114 467 0.0859355343603 2.95587573575
114 483 0.0724833745134 4.76620641071
114 491 0.079565784466 5.03367499537
114 495 0.0730939429476 3.37021687355
114 505 0.0803217339677 4.07439352467
114 511 0.0840633111167 5.03367499537
114 580 0.0866599519024 4.76620641071
114 597 0.0829545262477 4.76620641071
114 599 0.0768428593312 3.96572344691
114 698 0.0780485991136 6.0577426269
114 718 0.0765024593041 5.11972695518
114 745 0.0873943801516 4.76620641071
114 746 0.0613396165722 4.85699945296
115 21 0.0661948064595 2.2896114996
115 24 0.0572057180769 4.28347089017
115 66 0.0819272840763 5.9117514715
115 76 0.0932905571165 5.98519219385
115 111 0.0798274107383 4.76620641071
115 121 0.0768277259927 5.60837988324
115 124 0.0710539601927 0.934729980539
115 126 0.0836218731052 2.09011977709
115 134 0.0909114089703 2.64381563127
115 136 0.0853412203927 4.18023955419
115 150 0.0829619264448 5.45036555119
