1 58 0.0738680350158 2.2896114996
1 59 0.0892197367881 1.61899981765
1 61 0.0778496694173 1.61899981765
1 81 0.0718012767819 3.49743933632
1 86 0.0730105574009 2.80418994162
1 89 0.0832809533176 4.07439352467
1 119 0.0900994923338 5.68574050157
1 159 0.0686344593993 3.2379996353
1 161 0.0894898407297 4.28347089017
1 163 0.0911978936078 2.80418994162
1 177 0.0795245431176 3.37021687355
1 184 0.0742495171634 2.09011977709
1 193 0.0774116905664 2.64381563127
1 207 0.0868503822244 5.76206258103
1 293 0.0796130841649 2.95587573575
1 304 0.0867750094151 2.95587573575
1 317 0.0760802756197 3.85399044119
1 321 0.0737245282458 4.85699945296
1 327 0.0819873503788 4.85699945296
1 336 0.0651310000553 5.45036555119
1 414 0.0838626524739 3.96572344691
1 443 0.0895727221372 4.57922299921
1 458 0.0901818911259 5.45036555119
1 547 0.0794769174552 4.85699945296
1 559 0.0710497884354 5.45036555119
1 560 0.0776997889151 5.98519219385
1 576 0.0751532888703 5.11972695518
1 580 0.0758223346253 5.76206258103
1 598 0.0693438533682 6.27035933128
17 4 0.0714619756662 2.64381563127
17 33 0.0797510429406 2.64381563127
17 39 0.0602362473789 2.95587573575
17 48 0.0891741577807 4.6736499027
17 78 0.0883121824153 2.80418994162
17 108 0.0874011594781 2.80418994162
17 109 0.069647384049 2.2896114996
17 111 0.103608401123 2.2896114996
17 121 0.0746747525276 3.49743933632
17 127 0.0627904744038 3.96572344691
17 139 0.0723380562889 5.52993714052
17 143 0.0735339579623 5.76206258103
17 161 0.0841877038048 5.60837988324
17 169 0.076857611432 5.76206258103
17 180 0.0829228379341 4.57922299921
17 185 0.0804061546251 2.80418994162
17 193 0.0801123988219 2.09011977709
17 228 0.0912134602919 5.03367499537
17 241 0.0992692818037 4.18023955419
17 297 0.069234004636 4.85699945296
17 304 0.0790642597256 3.37021687355
17 311 0.0711029312413 4.76620641071
17 341 0.0777267329353 3.85399044119
17 349 0.0692994304661 6.12943438421
17 371 0.0756324689343 5.76206258103
17 373 0.0704260383921 5.45036555119
17 422 0.0773152601535 4.76620641071
17 423 0.0779761298901 4.6736499027
17 440 0.0807324206093 6.0577426269
17 455 0.0753382275531 3.73891992216
17 469 0.0864538413629 5.60837988324
17 470 0.0741244687038 5.03367499537
17 476 0.0655512811743 5.03367499537
17 487 0.0807896839145 5.98519219385
17 554 0.0719440820373 5.76206258103
17 573 0.0826386987785 6.0577426269
17 581 0.0815563025713 6.0577426269
17 588 0.0874432439028 5.03367499537
17 728 0.0775581772528 6.33964717314
19 24 0.100930131274 2.09011977709
19 27 0.0716804275234 1.32190781564
19 47 0.0828960966092 5.45036555119
19 76 0.0748249326289 2.80418994162
19 92 0.0651119874269 2.09011977709
19 97 0.0722481526818 5.76206258103
19 100 0.080743979186 3.10014862574
19 158 0.0801337865081 5.11972695518
19 159 0.0733835584413 5.03367499537
19 178 0.0719129904109 3.85399044119
19 180 0.0688911884327 6.20029725149
19 182 0.0709564863133 4.57922299921
19 196 0.0813817512396 2.2896114996
19 199 0.0877550997066 5.03367499537
19 231 0.0787377779951 4.3842722319
19 243 0.0831397819476 4.18023955419
19 250 0.0812243454952 5.11972695518
19 275 0.0829748464173 6.12943438421
19 296 0.0780266005631 3.96572344691
19 317 0.0726926007402 2.95587573575
19 318 0.07431777108 3.10014862574
19 319 0.0829214251145 3.49743933632
19 329 0.102061838949 3.96572344691
19 358 0.0780906870392 4.3842722319
19 362 0.075126724964 5.98519219385
19 412 0.0731631323103 5.98519219385
19 432 0.0977274260295 5.60837988324
19 442 0.0820022648181 6.0577426269
19 444 0.0862925001855 4.76620641071
19 449 0.0839351153307 4.28347089017
19 456 0.0861303458416 3.85399044119
19 488 0.0690650847194 5.45036555119
19 600 0.0753641778116 5.11972695518
19 602 0.0789772810247 6.27035933128
19 612 0.0742748314747 5.76206258103
19 695 0.0897120745234 6.20029725149
19 696 0.0873894509855 5.98519219385
19 729 0.0849699727039 5.98519219385
22 4 0.0711657259615 2.80418994162
22 14 0.0900507826459 5.03367499537
22 18 0.0760626485204 2.95587573575
22 24 0.0857085951593 1.86945996108
22 28 0.0822259956242 1.32190781564
22 31 0.0733374259455 2.09011977709
22 51 0.0852516490194 5.98519219385
22 64 0.0741500671392 4.28347089017
22 69 0.0739600252413 4.76620641071
22 96 0.0777114989894 5.76206258103
22 167 0.063241241331 6.27035933128
22 190 0.0790255367232 2.80418994162
22 210 0.0832072883986 1.86945996108
22 344 0.0923908142729 4.07439352467
22 355 0.0785831817897 4.3842722319
22 365 0.0730585631118 4.85699945296
22 367 0.0911044344965 6.12943438421
22 433 0.0974025617292 4.76620641071
22 461 0.0837771896 3.73891992216
22 469 0.078794729496 4.28347089017
22 479 0.0882962449133 4.57922299921
22 499 0.0806872376216 5.3696149308
22 576 0.0714206030012 5.11972695518
22 597 0.0734072671568 5.45036555119
22 598 0.0778353352717 5.98519219385
22 602 0.083183911858 4.76620641071
22 605 0.0713683957 5.52993714052
22 612 0.0870778926925 5.3696149308
22 712 0.0937351342388 5.76206258103
22 723 0.0736796378329 5.60837988324
22 741 0.0819386586798 6.20029725149
32 6 0.082515557991 3.85399044119
32 7 0.0769896773574 3.73891992216
32 34 0.0719803315513 1.86945996108
32 38 0.089072006004 1.32190781564
32 50 0.0801614452014 4.18023955419
32 73 0.0776664565042 5.3696149308
32 87 0.0775211807252 3.49743933632
32 141 0.0800282164083 4.28347089017
32 174 0.0841514526666 5.11972695518
32 182 0.0919422556004 5.03367499537
32 191 0.0706567584745 4.3842722319
32 205 0.0699003879431 3.2379996353
32 218 0.0856829997651 5.03367499537
32 231 0.0819318097569 2.80418994162
32 254 0.0806578061741 5.03367499537
32 322 0.0707861881066 4.3842722319
32 323 0.0788530887212 3.85399044119
32 331 0.0842994471991 4.07439352467
32 343 0.087995681294 2.95587573575
32 359 0.0748182025611 4.76620641071
32 387 0.0896134705174 5.52993714052
32 461 0.0974186022139 4.76620641071
32 493 0.0826552453594 4.28347089017
32 501 0.0751676882541 4.6736499027
32 519 0.0930750427098 6.0577426269
32 569 0.0796294142289 6.0577426269
32 611 0.0775121467205 5.11972695518
32 613 0.0684548232571 4.76620641071
32 620 0.0803203674911 5.11972695518
32 716 0.0813096206559 5.9117514715
32 717 0.0701806160287 5.98519219385
32 740 0.0758906870336 5.98519219385
33 18 0.0804479815786 2.09011977709
33 37 0.0788690075857 2.95587573575
33 39 0.0833891916746 1.32190781564
33 59 0.0738456786739 6.33964717314
33 73 0.0873386675994 6.0577426269
33 82 0.0886292380788 4.76620641071
33 83 0.0862646736018 4.07439352467
33 140 0.0851488078965 5.3696149308
33 184 0.0729333772789 4.57922299921
33 225 0.0828919027622 2.09011977709
33 239 0.088045333188 4.57922299921
33 247 0.0814174815356 5.03367499537
33 259 0.0780945578789 4.28347089017
33 286 0.0738543953616 6.33964717314
33 293 0.077177308493 6.12943438421
33 313 0.0776670042033 5.45036555119
33 316 0.0729044984795 4.07439352467
33 317 0.0716056549522 3.96572344691
33 322 0.0883153611489 5.03367499537
33 333 0.0696533105117 3.49743933632
33 340 0.0827539761717 5.45036555119
33 355 0.0818284065452 3.10014862574
33 450 0.0723067249172 5.45036555119
33 460 0.0734337672946 5.03367499537
33 472 0.0686425760479 4.6736499027
33 494 0.0740965576858 4.28347089017
33 570 0.0823924277295 6.0577426269
33 597 0.0661787365163 4.85699945296
33 612 0.0828443197686 5.11972695518
33 623 0.0754653543266 5.11972695518
33 633 0.0802422850387 5.76206258103
33 638 0.0720551860032 6.27035933128
33 642 0.0799539803159 6.27035933128
33 759 0.058769597275 6.33964717314
37 24 0.0713953856554 2.09011977709
37 41 0.0765280502869 1.32190781564
37 50 0.0751982523503 2.80418994162
37 85 0.0771475230704 4.28347089017
37 101 0.0797534786837 2.2896114996
37 109 0.0888846762418 1.32190781564
37 125 0.0770852930718 2.2896114996
37 150 0.08678732599 4.76620641071
37 205 0.0754502446348 5.03367499537
37 243 0.0871190454205 3.49743933632
37 267 0.0743645309029 5.11972695518
37 269 0.0779419171704 5.9117514715
37 301 0.0764505172235 5.76206258103
37 325 0.0745377227982 4.3842722319
37 331 0.0773802705913 3.49743933632
37 334 0.0829521469812 3.85399044119
37 350 0.0675124168923 3.96572344691
37 352 0.0893979349437 2.95587573575
37 353 0.0799694186516 2.80418994162
37 458 0.0791681227742 5.98519219385
37 461 0.0792197834024 4.28347089017
37 469 0.0632369073135 4.76620641071
37 577 0.0952484220447 6.0577426269
37 606 0.0825705789932 5.52993714052
37 610 0.0773309806571 4.76620641071
37 726 0.0696311933894 6.20029725149
37 732 0.0801491937066 5.68574050157
50 34 0.097915036534 5.28763126254
50 36 0.0915190188108 2.95587573575
50 46 0.0821389448817 1.32190781564
50 97 0.0832457624245 5.52993714052
50 114 0.0821359230142 6.0577426269
50 117 0.0883789039959 3.10014862574
50 136 0.07931013802 1.61899981765
50 147 0.0904241785989 1.61899981765
50 151 0.0757542969818 2.2896114996
50 199 0.0724713248202 6.20029725149
50 201 0.0859081418555 5.9117514715
50 212 0.0835856977552 5.11972695518
50 233 0.0941622049422 3.85399044119
50 249 0.0839156015623 2.2896114996
50 253 0.0889153326612 5.11972695518
50 254 0.0949923185314 2.09011977709
50 255 0.104864551415 1.86945996108
50 261 0.0850514962548 2.09011977709
50 334 0.0635082230086 5.76206258103
50 361 0.087458140355 3.85399044119
50 382 0.0838160453499 3.96572344691
50 392 0.0865638463543 3.37021687355
50 463 0.0827597037262 6.0577426269
50 479 0.068482817653 5.45036555119
50 498 0.0774219790182 3.96572344691
50 523 0.0704733253679 4.18023955419
50 603 0.0731291291974 5.98519219385
50 614 0.0805290864238 6.12943438421
50 620 0.0843978288868 5.11972695518
50 621 0.0636518208869 5.3696149308
50 622 0.0842923185254 5.76206258103
50 628 0.0876057771554 4.76620641071
50 639 0.0865442177077 5.03367499537
50 645 0.0690860673233 4.85699945296
50 747 0.0719608030976 5.98519219385
54 1 0.0847395192635 2.09011977709
54 20 0.0896314497335 5.52993714052
54 98 0.0795807844446 6.27035933128
54 172 0.0682510665056 2.80418994162
54 191 0.0856556604085 4.28347089017
54 200 0.077572682276 5.11972695518
54 202 0.0891670408054 4.76620641071
54 276 0.0718990571263 1.86945996108
54 285 0.0730810453256 2.09011977709
54 288 0.0731333619483 3.49743933632
54 292 0.0886177633977 3.2379996353
54 307 0.0826044460361 4.3842722319
54 327 0.0779789834191 5.76206258103
54 421 0.0768797515197 3.85399044119
54 428 0.0792673821024 5.76206258103
54 429 0.0805865017233 6.12943438421
54 439 0.0780065764025 6.12943438421
54 443 0.0710618213827 5.03367499537
54 452 0.0765604895171 6.12943438421
54 539 0.0986772647681 4.18023955419
54 561 0.0831622548819 6.27035933128
54 671 0.0886059596038 5.45036555119
54 673 0.0656973713416 5.52993714052
54 683 0.0814257535888 5.3696149308
54 796 0.0857556164749 5.9117514715
54 817 0.0898797262087 5.9117514715
55 12 0.0870897877152 6.33964717314
55 64 0.0931032191042 1.32190781564
55 274 0.085102181526 3.49743933632
55 284 0.0713792683291 4.18023955419
55 290 0.0626438158534 2.2896114996
55 293 0.0935228970533 4.28347089017
55 299 0.080076689521 2.64381563127
55 300 0.0766016700364 2.80418994162
55 301 0.0901392230381 3.2379996353
55 310 0.0852304208874 3.37021687355
55 433 0.0736681528295 5.03367499537
55 804 0.0734407740653 5.9117514715
59 1 0.0808264993985 1.61899981765
59 8 0.0791484908832 3.49743933632
59 13 0.0728639404294 4.07439352467
59 16 0.0911343729438 3.85399044119
59 63 0.0902011753142 3.85399044119
59 72 0.0846752563587 3.37021687355
59 74 0.0739395681294 2.09011977709
59 95 0.0774894431239 5.28763126254
59 98 0.0831153062579 5.03367499537
59 104 0.0841214280739 5.98519219385
59 110 0.0730552365076 5.68574050157
59 155 0.0763564677897 1.61899981765
59 199 0.0796682461897 4.28347089017
59 284 0.0954207754301 1.86945996108
59 304 0.0857350490822 2.80418994162
59 321 0.0927932277253 4.57922299921
59 322 0.0847095225409 4.28347089017
59 413 0.0906929100198 2.95587573575
59 431 0.08211337958 3.85399044119
59 437 0.0843123455863 5.03367499537
59 448 0.0755645226327 5.45036555119
59 452 0.0775969705623 5.03367499537
59 535 0.0756698295249 3.96572344691
59 544 0.0801018450616 3.85399044119
59 545 0.0547939921469 3.73891992216
59 556 0.0864054574335 3.96572344691
59 586 0.0753034116936 5.3696149308
59 691 0.075081888148 5.76206258103
59 694 0.0812643387285 5.03367499537
59 807 0.0675331204422 5.68574050157
62 18 0.0900038305327 3.96572344691
62 23 0.0843047183846 5.52993714052
62 51 0.0807620657047 5.68574050157
62 52 0.0839630057701 4.76620641071
62 67 0.0699745224173 2.95587573575
62 68 0.0779753251756 2.09011977709
62 70 0.0782305285163 0.934729980539
62 88 0.0756212986676 3.37021687355
62 102 0.0753807971502 4.76620641071
62 153 0.0783861834934 5.76206258103
62 167 0.092455737606 0.934729980539
62 175 0.0701200442062 1.61899981765
62 182 0.0668398630301 4.28347089017
62 184 0.0708755479164 2.80418994162
62 186 0.0805887426974 2.09011977709
62 188 0.0669192134573 2.80418994162
62 195 0.0887244596649 2.95587573575
62 285 0.0779297485368 2.64381563127
62 286 0.0817260739703 2.09011977709
62 312 0.0643975313877 5.76206258103
62 405 0.0908086963668 3.10014862574
62 413 0.0807878367785 3.37021687355
62 433 0.0896854119829 4.3842722319
62 558 0.0805281408278 3.85399044119
62 580 0.0704929621013 4.76620641071
62 689 0.0655693344237 5.11972695518
62 706 0.0681360595771 5.52993714052
62 707 0.0923943370631 5.45036555119
62 708 0.0843081548176 5.52993714052
62 797 0.0909423958046 6.33964717314
62 800 0.0696484390583 5.68574050157
64 8 0.0741381465131 5.76206258103
64 9 0.0788223705842 2.80418994162
64 10 0.071465740148 3.49743933632
64 11 0.0762185968079 4.28347089017
64 29 0.0815114053481 5.11972695518
64 65 0.0780060456495 0.934729980539
64 91 0.0821308351195 3.96572344691
64 99 0.0730730049187 4.18023955419
64 156 0.0899464723233 3.49743933632
64 164 0.0721359726388 3.10014862574
64 165 0.0692625139007 3.96572344691
64 191 0.0794531936951 2.80418994162
64 193 0.0899909216502 4.28347089017
64 194 0.090600153594 5.11972695518
64 282 0.0941864780406 2.2896114996
64 286 0.0627459806662 5.11972695518
64 299 0.0799280816149 2.2896114996
64 321 0.0826321447097 3.49743933632
64 322 0.0701027899522 3.85399044119
64 400 0.0756098671022 3.37021687355
64 471 0.087999679469 5.76206258103
64 480 0.0875904135562 6.33964717314
64 534 0.0766485571643 4.28347089017
64 538 0.0783139537867 6.27035933128
64 556 0.0962136182694 5.28763126254
64 562 0.0771510377719 3.96572344691
64 665 0.0750093580632 5.03367499537
64 666 0.0731494229428 5.11972695518
64 668 0.088133120519 6.27035933128
64 675 0.0771912463401 5.52993714052
64 692 0.0797692882174 4.85699945296
64 704 0.0772796672113 5.3696149308
66 6 0.0771945819605 2.2896114996
66 7 0.0818239189466 3.10014862574
66 15 0.0738870475785 2.95587573575
66 19 0.104578728738 4.76620641071
66 24 0.0760703164585 4.28347089017
66 27 0.0815097272131 6.0577426269
66 75 0.0775636377721 1.32190781564
66 89 0.0919285142252 2.95587573575
66 92 0.0674038079467 3.37021687355
66 166 0.075833107259 3.10014862574
66 173 0.0828718123132 1.32190781564
66 177 0.0754611279103 4.76620641071
66 195 0.0690402545073 4.28347089017
66 203 0.0752479512515 4.07439352467
66 208 0.0837654615672 4.28347089017
66 213 0.0806147599851 4.76620641071
66 283 0.0729929783005 2.09011977709
66 293 0.0809887472143 2.09011977709
66 294 0.0908856742421 2.64381563127
66 301 0.0718437566035 2.2896114996
66 305 0.0896986858294 3.49743933632
66 315 0.070208950063 3.2379996353
66 318 0.0690883310901 5.3696149308
66 412 0.079792614047 3.10014862574
66 421 0.0795169468864 2.80418994162
66 422 0.0772153066192 2.95587573575
66 432 0.0788359177098 2.95587573575
66 534 0.0801586070109 4.28347089017
66 536 0.0793493741764 4.28347089017
66 544 0.0841062591135 3.85399044119
66 551 0.0805180974243 4.6736499027
66 588 0.0779050807071 5.98519219385
66 602 0.0820141092448 5.98519219385
66 669 0.0665895004426 5.76206258103
66 825 0.0653857234922 5.76206258103
67 4 0.0841902784143 1.61899981765
67 20 0.0692330903817 4.76620641071
67 53 0.0779972063901 1.86945996108
67 58 0.0755042015214 1.32190781564
67 64 0.0778596192973 2.80418994162
67 72 0.0794259883359 2.95587573575
67 75 0.0805498182824 0.934729980539
67 81 0.0635828568918 2.64381563127
67 93 0.0758241372134 3.37021687355
67 159 0.0902595083856 3.49743933632
67 162 0.0762421286017 2.2896114996
67 180 0.0624510198943 3.10014862574
67 198 0.0745154348295 5.98519219385
67 200 0.0666373965781 3.10014862574
67 213 0.0785503661493 4.28347089017
67 223 0.0774881186873 5.11972695518
67 225 0.0854192207866 6.0577426269
67 279 0.0811592474218 4.57922299921
67 310 0.0680795412743 4.57922299921
67 318 0.0865735624093 4.57922299921
67 320 0.0770866740311 6.20029725149
67 332 0.0731801227775 4.18023955419
67 336 0.0742603077705 5.60837988324
67 410 0.0797091859902 3.49743933632
67 411 0.072718034625 3.10014862574
67 422 0.066672714441 2.80418994162
67 449 0.0840002337323 5.76206258103
67 481 0.0788175140461 6.33964717314
67 546 0.0723950357341 3.96572344691
67 550 0.0820959596127 6.0577426269
67 565 0.0863906639301 3.96572344691
67 592 0.0776228675659 5.98519219385
67 595 0.0655263856203 5.28763126254
67 691 0.0691267095839 5.52993714052
67 696 0.0881554410686 5.11972695518
67 808 0.0659573518181 5.98519219385
67 828 0.0910675169051 5.76206258103
75 6 0.0716229901041 1.32190781564
75 22 0.0784018791847 3.10014862574
75 77 0.0774138856931 1.86945996108
75 78 0.0719473591693 2.80418994162
75 95 0.0729060362706 4.18023955419
75 112 0.0765848192106 4.6736499027
75 120 0.0781801227878 5.03367499537
75 164 0.0604204265702 2.09011977709
75 168 0.082052055855 4.28347089017
75 176 0.0747911349627 3.10014862574
75 194 0.0731968541833 2.2896114996
75 200 0.0710653636152 2.2896114996
75 203 0.0942741767768 2.80418994162
75 210 0.0930574720122 3.10014862574
75 211 0.0859899976293 2.95587573575
75 223 0.0715592787357 4.28347089017
75 225 0.0745931224778 5.3696149308
75 234 0.0764853076928 5.52993714052
75 240 0.0847032957666 5.68574050157
75 242 0.0869142652797 5.98519219385
75 277 0.0881160057642 3.85399044119
75 283 0.0908397294242 2.80418994162
75 302 0.0807688803881 2.09011977709
75 324 0.0646617518329 2.80418994162
75 429 0.0714012184627 4.6736499027
75 435 0.0735275235793 3.37021687355
75 438 0.0760182974325 5.45036555119
75 475 0.0905219760106 5.45036555119
75 484 0.0828090634601 5.76206258103
75 578 0.0857357737078 4.28347089017
75 584 0.0814536877188 4.57922299921
75 590 0.0741272849946 6.27035933128
75 603 0.0750391165454 5.28763126254
75 679 0.0987897541471 6.27035933128
75 686 0.0816395497199 5.11972695518
75 711 0.0759613530683 5.76206258103
75 817 0.0835427596009 5.76206258103
75 839 0.077138294885 5.98519219385
84 7 0.0792102873453 1.61899981765
84 16 0.0796721610948 1.61899981765
84 19 0.0807738113581 2.2896114996
84 69 0.0747926557603 2.09011977709
84 72 0.0774396181247 3.85399044119
84 76 0.0776079034958 0.934729980539
84 96 0.0802987472515 3.85399044119
84 118 0.0828344447005 3.85399044119
84 122 0.0766756938485 4.6736499027
84 132 0.075956846668 5.98519219385
84 158 0.0860611068601 3.96572344691
84 162 0.0794880996832 4.07439352467
84 194 0.0866675677281 1.32190781564
84 196 0.0929902609888 2.95587573575
84 197 0.0911906136324 3.85399044119
84 200 0.0813523872888 2.2896114996
84 220 0.070822354174 3.49743933632
84 228 0.0756751985285 5.3696149308
84 290 0.0809588744881 4.57922299921
84 340 0.0830974609104 4.3842722319
84 415 0.0841593056911 4.3842722319
84 419 0.0897268905273 5.03367499537
84 430 0.0959027385174 4.76620641071
84 465 0.0865674223576 3.85399044119
84 567 0.0849654063051 3.85399044119
84 569 0.0709687962772 4.28347089017
84 587 0.0760566840139 3.96572344691
84 594 0.0647381497233 4.57922299921
84 595 0.0892893013407 4.28347089017
84 673 0.0784558213432 6.12943438421
84 725 0.0838042716186 5.03367499537
84 831 0.0699417848062 6.33964717314
84 856 0.0875932083794 5.98519219385
84 858 0.0767160915398 5.98519219385
89 19 0.0758517315738 4.76620641071
89 49 0.0765621450881 6.0577426269
89 56 0.0805239086603 3.85399044119
89 74 0.0705262655242 2.09011977709
89 75 0.0772906613211 2.64381563127
89 76 0.0856981572702 3.37021687355
89 77 0.0809298391343 4.18023955419
89 79 0.0675391394344 5.9117514715
89 87 0.0697617439775 5.68574050157
89 108 0.0797107953645 2.09011977709
89 115 0.0716857409988 2.95587573575
89 128 0.0905864104701 4.6736499027
89 136 0.077406008881 5.45036555119
89 158 0.0710755309109 6.0577426269
89 165 0.082544694314 4.76620641071
89 176 0.0708433008784 5.52993714052
89 205 0.0842801124317 5.68574050157
89 213 0.0812563168859 3.96572344691
89 231 0.0909863273973 3.49743933632
89 254 0.0680043983309 5.76206258103
89 275 0.0667916741873 5.3696149308
89 287 0.0848748502306 6.27035933128
89 316 0.0767094325885 4.28347089017
89 351 0.0822951476458 3.37021687355
89 411 0.0810817233694 4.76620641071
89 442 0.0889061276478 2.95587573575
89 444 0.0785087422004 3.49743933632
89 490 0.0728201426889 5.03367499537
89 554 0.0748366751508 4.76620641071
99 7 0.0848073207738 4.07439352467
99 12 0.0679426377101 3.49743933632
99 32 0.0794277291854 3.10014862574
99 55 0.088165506854 5.45036555119
99 142 0.0845365406535 5.03367499537
99 185 0.0761933341763 4.07439352467
99 193 0.0870798171917 2.80418994162
99 219 0.076371170099 1.61899981765
99 229 0.072904792063 2.2896114996
99 241 0.095761233387 3.49743933632
99 272 0.0862863310332 6.20029725149
99 280 0.0853156645148 5.76206258103
99 286 0.0813354377463 5.76206258103
99 293 0.0814220647452 4.28347089017
99 297 0.0982884045087 6.27035933128
99 325 0.0830798759226 3.49743933632
99 332 0.0837934430854 2.09011977709
99 340 0.0734080795453 2.2896114996
99 350 0.0752820058055 3.2379996353
99 354 0.0773039141834 3.2379996353
99 355 0.0745989495731 3.85399044119
99 363 0.082580680078 3.49743933632
99 373 0.0845213613336 4.57922299921
99 422 0.0828197678978 4.76620641071
99 435 0.0821201517032 4.85699945296
99 442 0.0778657912638 3.49743933632
99 446 0.0808290692629 4.3842722319
99 464 0.0791422279405 3.96572344691
99 480 0.0812237337118 3.49743933632
99 481 0.0771819932578 3.37021687355
99 501 0.0854473064174 5.45036555119
99 507 0.0885664111078 5.45036555119
99 577 0.0891150678918 4.57922299921
99 578 0.0710707363147 5.03367499537
99 595 0.07887348328 3.85399044119
99 711 0.0756238976617 5.11972695518
99 716 0.0738463699851 5.52993714052
99 826 0.0833046016015 6.27035933128
99 837 0.0761700574545 5.98519219385
99 838 0.081740699415 6.20029725149
99 872 0.071489557557 5.98519219385
100 11 0.0704278495688 2.2896114996
100 14 0.0771620455048 4.28347089017
100 37 0.0906873553916 2.09011977709
100 43 0.080351413259 3.10014862574
100 53 0.0808961230618 5.60837988324
100 61 0.0908191484437 5.03367499537
100 115 0.0817376523677 3.37021687355
100 117 0.0616680910994 2.09011977709
100 125 0.082413613214 3.37021687355
100 140 0.0850537632313 4.76620641071
100 154 0.0890673016815 5.98519219385
100 175 0.0749912404902 4.28347089017
100 184 0.0814674098489 3.10014862574
100 185 0.0705739064674 3.49743933632
100 219 0.068392525395 2.2896114996
100 226 0.0896183344232 4.85699945296
100 250 0.0907882966723 4.28347089017
100 259 0.0741447309578 6.0577426269
100 295 0.0718727057923 4.57922299921
100 298 0.0820195084151 6.27035933128
100 300 0.0903537406227 4.3842722319
100 324 0.0774907430098 2.2896114996
100 344 0.0741934168311 2.80418994162
100 349 0.0917575460535 4.57922299921
100 350 0.0837338687538 3.85399044119
100 361 0.0873913663255 3.85399044119
100 380 0.0851017574264 5.11972695518
100 388 0.0906319496748 6.20029725149
100 403 0.0790801251707 6.27035933128
100 426 0.100216000197 5.98519219385
100 434 0.0942341038198 4.07439352467
100 441 0.0798997854246 4.3842722319
100 448 0.0784849067286 5.03367499537
100 453 0.086800338318 3.10014862574
100 461 0.0730685294167 2.95587573575
100 479 0.0855334971746 4.3842722319
100 495 0.0803908825825 6.12943438421
100 497 0.0810146284444 5.03367499537
100 500 0.0752664292903 4.76620641071
100 545 0.0895957878531 5.98519219385
100 553 0.0799997020001 5.60837988324
100 569 0.0961186001775 5.45036555119
100 579 0.0858871301951 5.03367499537
100 587 0.0722824995115 4.28347089017
100 604 0.0736250826117 3.96572344691
100 607 0.0877257264638 5.3696149308
100 610 0.100565268487 4.28347089017
100 621 0.089553161173 5.03367499537
100 627 0.105953530573 5.3696149308
100 683 0.0644223481901 6.0577426269
100 736 0.0908293605022 6.0577426269
100 756 0.0742076846695 6.0577426269
102 1 0.0706756893391 3.96572344691
102 7 0.0722257481379 2.95587573575
102 8 0.0819310394942 3.10014862574
102 44 0.0863391303735 2.95587573575
102 87 0.0808889262016 2.64381563127
102 88 0.0804403149279 3.37021687355
102 94 0.0651606911482 1.32190781564
102 106 0.0729295409116 4.76620641071
102 110 0.0678252684922 1.32190781564
102 168 0.072084363843 5.11972695518
102 192 0.0827902767846 2.80418994162
102 211 0.0878197373466 2.09011977709
102 214 0.0751646618431 1.32190781564
102 219 0.0757550796993 3.96572344691
102 237 0.0682453276228 5.52993714052
102 243 0.071852890472 3.10014862574
102 264 0.082780852679 5.76206258103
102 286 0.085117526746 5.03367499537
102 292 0.0749709640445 5.03367499537
102 315 0.0846231125893 2.80418994162
102 326 0.0738406356363 2.2896114996
102 353 0.0814360620033 3.2379996353
102 372 0.0806372904212 4.57922299921
102 389 0.0718956321828 5.98519219385
102 435 0.0882458128423 3.96572344691
102 449 0.0815838999492 4.3842722319
102 505 0.0798940618838 5.98519219385
102 554 0.078880396122 5.98519219385
102 558 0.0669481425787 5.3696149308
102 565 0.0873968991154 5.45036555119
102 567 0.0766869598514 4.76620641071
102 569 0.0771204851469 4.76620641071
102 582 0.0954955758587 5.60837988324
102 583 0.0885368888666 6.0577426269
102 584 0.0966470190997 5.3696149308
102 589 0.0704471540364 4.28347089017
102 622 0.0853701250118 4.76620641071
102 696 0.0659392829506 5.45036555119
102 720 0.0670301638391 6.0577426269
102 748 0.0838829805594 5.76206258103
102 760 0.0883022657884 6.0577426269
102 882 0.0842291298662 6.27035933128
107 1 0.0823230522249 5.52993714052
107 7 0.0998165791882 5.3696149308
107 11 0.0907654226231 4.07439352467
107 28 0.0702316423439 0.934729980539
107 36 0.0762325031022 1.61899981765
107 60 0.0746857821848 6.27035933128
107 63 0.0689115249193 5.03367499537
107 69 0.0759101761851 5.98519219385
107 110 0.0769803573051 2.80418994162
107 111 0.0843361080354 3.73891992216
107 121 0.0745754512601 4.76620641071
107 165 0.0710199497407 6.33964717314
107 183 0.0860106753097 4.28347089017
107 196 0.0757570572843 6.33964717314
107 252 0.0746421072013 6.33964717314
107 282 0.0716091040755 5.9117514715
107 312 0.0789577778467 3.37021687355
107 324 0.0822747281365 3.85399044119
107 343 0.0915149137657 3.37021687355
107 360 0.0708124219092 2.80418994162
107 367 0.0684280960702 6.20029725149
107 419 0.087077910812 5.52993714052
107 430 0.0768518493589 4.76620641071
107 434 0.0897978160183 5.45036555119
107 457 0.0693439969879 5.76206258103
107 464 0.0851293911569 4.76620641071
107 472 0.0951680533151 3.37021687355
107 493 0.0909690335321 5.76206258103
107 508 0.0896242547994 5.03367499537
107 565 0.069993477446 5.3696149308
107 574 0.0851268501301 4.6736499027
107 628 0.086013916872 5.03367499537
107 637 0.0785398959252 5.60837988324
107 638 0.0809502214835 5.98519219385
107 646 0.0871480750648 6.27035933128
107 694 0.0636971619934 6.27035933128
107 711 0.082213167948 5.11972695518
107 723 0.0972105636342 4.85699945296
107 739 0.0845143138568 4.85699945296
109 0 0.0605946975827 4.76620641071
109 38 0.0917328219396 1.61899981765
109 42 0.0777889869781 2.09011977709
109 43 0.073639502085 2.2896114996
109 62 0.0836568747603 6.27035933128
109 74 0.0926238265114 3.85399044119
109 82 0.081528750093 2.95587573575
109 85 0.0781108049096 3.37021687355
109 114 0.0865374680926 4.6736499027
109 115 0.0825910838869 2.95587573575
109 116 0.0869364506353 2.09011977709
109 142 0.0804221052159 3.85399044119
109 147 0.0790960030638 4.76620641071
109 172 0.0864623609706 4.85699945296
109 213 0.086176461472 2.2896114996
109 220 0.101087022306 1.32190781564
109 223 0.0821047334814 2.09011977709
109 304 0.0796990426068 4.28347089017
109 313 0.0742262701423 3.49743933632
109 315 0.0812629550716 3.49743933632
109 318 0.0722447245466 5.03367499537
109 323 0.0670859454706 2.64381563127
109 339 0.0666205613757 3.37021687355
109 343 0.0856319533639 2.09011977709
109 358 0.089264262565 5.11972695518
109 386 0.091714624658 5.03367499537
109 441 0.0913991073278 4.85699945296
109 461 0.0906583939003 3.10014862574
109 464 0.0744743742278 3.49743933632
109 465 0.0737070756842 4.07439352467
109 473 0.080316097533 2.95587573575
109 476 0.0894545418827 4.6736499027
109 480 0.0813620271399 3.49743933632
109 489 0.0732332795982 3.49743933632
109 512 0.0837918628434 5.98519219385
109 563 0.083745279763 5.98519219385
109 596 0.0743771056954 3.96572344691
109 603 0.0723488803016 3.73891992216
109 692 0.0755577044372 6.27035933128
109 695 0.0776205292318 6.0577426269
109 721 0.0814506640866 5.52993714052
109 724 0.069534541112 4.76620641071
109 742 0.0731963495267 5.11972695518
109 768 0.0698878442744 6.27035933128
109 856 0.0764732957016 5.68574050157
116 23 0.0748938200815 2.80418994162
116 41 0.075697739247 1.61899981765
116 64 0.0890020279466 5.68574050157
116 117 0.0815358280347 0.934729980539
116 125 0.0593664431145 0.934729980539
116 126 0.0837250737478 1.32190781564
116 128 0.0841810766056 2.95587573575
116 147 0.0726562092576 4.6736499027
116 190 0.0831868542622 3.85399044119
116 202 0.082347036475 4.07439352467
116 219 0.0796709816873 1.32190781564
116 220 0.0835255677206 1.61899981765
116 229 0.084593388675 0.934729980539
116 230 0.0820703356487 1.32190781564
116 241 0.0781163445591 3.10014862574
116 246 0.0705117454581 2.2896114996
116 291 0.0708409898389 5.9117514715
116 292 0.0740833275556 5.98519219385
116 304 0.0796066766628 5.76206258103
116 343 0.0688906078566 3.49743933632
116 355 0.0799348282944 4.18023955419
116 376 0.0718512005602 6.20029725149
116 456 0.087068140088 5.45036555119
116 514 0.0901128884648 4.6736499027
116 576 0.075441657815 5.60837988324
116 622 0.0846070663387 6.0577426269
116 638 0.0667159006337 5.45036555119
116 703 0.0725880743126 5.98519219385
116 742 0.0766973613665 5.98519219385
116 749 0.0838042365926 5.52993714052
116 766 0.0861361233689 5.76206258103
116 881 0.100578348254 6.33964717314
123 83 0.0818850121656 5.98519219385
123 151 0.0757252717906 5.98519219385
123 210 0.0861229179135 5.98519219385
123 217 0.100533024252 2.2896114996
123 223 0.0733110716626 3.10014862574
123 240 0.0879212103621 4.85699945296
123 248 0.0893481095383 5.11972695518
123 264 0.0836589237801 4.28347089017
123 317 0.0856257088423 4.57922299921
123 320 0.0765082007684 4.28347089017
123 333 0.0711115162464 4.57922299921
123 379 0.0873322841356 5.76206258103
123 390 0.0789467086107 4.28347089017
123 450 0.0745796377358 4.76620641071
123 467 0.075886256012 3.37021687355
123 468 0.0809358652888 3.49743933632
123 495 0.0762946886918 2.95587573575
123 570 0.0756666384629 6.0577426269
123 590 0.086265171503 4.6736499027
123 616 0.0804555470983 3.73891992216
123 623 0.0792460750759 3.96572344691
123 631 0.0872323823183 4.57922299921
123 648 0.0699517695976 5.98519219385
123 709 0.0807620589419 5.98519219385
123 727 0.0778733198107 5.3696149308
123 868 0.0804939595883 5.76206258103
123 894 0.0844428622498 5.9117514715
125 43 0.0763481819218 2.95587573575
125 100 0.0834999079073 3.37021687355
125 138 0.0763795170595 4.76620641071
125 145 0.0755989505567 2.95587573575
125 184 0.0758861559021 6.33964717314
125 209 0.0912902605401 2.95587573575
125 232 0.0834578475538 3.10014862574
125 241 0.085671395571 2.95587573575
125 246 0.0789026480721 1.61899981765
125 262 0.0850923367703 4.07439352467
125 324 0.0826113092215 5.03367499537
125 326 0.0803507849435 6.27035933128
125 330 0.0858686327586 3.37021687355
125 367 0.0712246401984 5.9117514715
125 456 0.0719498537795 5.98519219385
125 464 0.0649540286612 5.45036555119
125 475 0.096130806625 5.76206258103
125 481 0.0734630568707 3.10014862574
125 498 0.0840993208642 3.10014862574
125 501 0.0876363927769 4.76620641071
125 511 0.0954491703382 5.76206258103
125 523 0.0820354101976 5.03367499537
125 583 0.0766842664287 5.3696149308
125 626 0.066137883324 3.85399044119
125 635 0.0777271729127 4.18023955419
125 636 0.0865952442178 4.28347089017
125 644 0.0952534456575 4.6736499027
125 766 0.0791448915394 5.3696149308
125 881 0.0756974057479 6.27035933128
126 11 0.079131282839 5.11972695518
126 21 0.0744684480124 3.10014862574
126 23 0.0854614323697 3.10014862574
126 31 0.0812911953888 2.80418994162
126 43 0.0777372734689 2.09011977709
126 84 0.0866777272869 5.03367499537
126 89 0.0970721712504 3.85399044119
126 101 0.0707371797945 3.37021687355
126 117 0.0622910068797 0.934729980539
126 119 0.0622240548647 2.09011977709
126 133 0.0815038684498 1.32190781564
126 136 0.0855447912039 2.09011977709
126 138 0.0769241199752 3.85399044119
126 142 0.0749835491755 2.64381563127
126 211 0.0644014209002 3.10014862574
126 235 0.0814494469629 4.85699945296
126 241 0.0794176359609 2.09011977709
126 246 0.0795663862171 2.2896114996
126 249 0.0808370575049 2.2896114996
126 267 0.0874034507054 4.28347089017
126 304 0.0748802846224 6.20029725149
126 323 0.0631406016855 4.28347089017
126 341 0.0973894680529 2.64381563127
126 386 0.0843696230408 3.49743933632
126 452 0.0860157059239 4.76620641071
126 453 0.0802960236269 4.6736499027
126 470 0.0832017863007 3.49743933632
126 480 0.0989408055834 3.10014862574
126 484 0.0779753162006 4.07439352467
126 490 0.0785646978364 2.95587573575
126 499 0.08489513983 3.10014862574
126 502 0.0904045321244 4.76620641071
126 506 0.0902426257678 3.49743933632
126 607 0.0889107094107 6.27035933128
126 618 0.0851829355097 3.73891992216
126 621 0.0883175325586 4.6736499027
126 635 0.0788847269256 4.28347089017
126 644 0.0787977401786 4.76620641071
126 656 0.0964579619172 5.98519219385
126 741 0.0845202901383 5.11972695518
126 756 0.0726331930888 4.76620641071
128 4 0.0784030489672 5.98519219385
128 12 0.0756873824277 4.85699945296
128 40 0.0817500067442 2.2896114996
128 42 0.080514240749 1.32190781564
128 49 0.0851792897788 1.61899981765
128 110 0.081055786503 1.86945996108
128 133 0.0847403007031 2.95587573575
128 181 0.0814307343654 6.33964717314
128 200 0.0820522912628 4.28347089017
128 209 0.0779463115543 4.07439352467
128 227 0.0831799144371 5.11972695518
128 237 0.0686894938672 3.85399044119
128 253 0.0974984267151 3.96572344691
128 256 0.0728749613108 2.09011977709
128 258 0.0718494539827 2.80418994162
128 314 0.0738274218877 5.11972695518
128 321 0.0790342317452 5.03367499537
128 347 0.0688157443344 4.57922299921
128 362 0.0714503276761 2.64381563127
128 369 0.0881363922235 5.03367499537
128 381 0.0752194499284 2.80418994162
128 382 0.0737157115431 3.2379996353
128 388 0.0801775111004 3.49743933632
128 399 0.0715576490561 5.11972695518
128 455 0.0702486643215 4.6736499027
128 456 0.0904298233637 4.76620641071
128 458 0.0837213374527 5.45036555119
128 464 0.0772574616003 4.07439352467
128 479 0.0931166795294 4.76620641071
128 493 0.0811912200194 3.37021687355
128 503 0.0860276228911 4.07439352467
128 508 0.0710002113445 3.49743933632
128 511 0.0643378248453 3.85399044119
128 515 0.0835636440122 4.3842722319
128 521 0.095555532993 5.45036555119
128 575 0.0922563323696 6.27035933128
128 577 0.0725489521054 5.98519219385
128 586 0.076113224889 5.28763126254
128 600 0.0720501002318 5.98519219385
128 615 0.0829735463922 4.76620641071
128 616 0.0799001912993 5.3696149308
128 871 0.0795452135571 5.98519219385
128 875 0.0685112756172 5.98519219385
132 93 0.0596337424391 4.6736499027
132 105 0.0750354735627 2.80418994162
132 108 0.0806160490365 5.9117514715
132 109 0.0651736221637 5.03367499537
132 111 0.0803090047328 3.37021687355
132 114 0.0915971651049 1.86945996108
132 134 0.0814806031208 5.68574050157
132 138 0.0778154178829 2.09011977709
132 146 0.0815901824763 5.45036555119
132 224 0.0844709456485 2.80418994162
132 226 0.0833791586399 2.09011977709
132 250 0.0785151502232 3.10014862574
132 254 0.0856790676396 5.98519219385
132 372 0.0607373774926 5.11972695518
132 382 0.0826125167867 3.2379996353
132 389 0.0816249887563 3.85399044119
132 458 0.0813814929738 4.76620641071
132 475 0.0871490284114 3.85399044119
132 478 0.0778578238762 3.49743933632
132 494 0.0766326308538 2.95587573575
132 499 0.0633889546885 5.52993714052
132 596 0.075391967757 5.98519219385
132 607 0.0711328820406 4.28347089017
132 648 0.0834195179846 5.45036555119
132 744 0.0711028220737 4.85699945296
132 759 0.0783119644265 5.52993714052
132 771 0.0799090332773 5.03367499537
132 787 0.0777478729474 6.0577426269
132 877 0.0847111839856 5.68574050157
137 16 0.0781702224759 5.11972695518
137 37 0.0906841279233 2.80418994162
137 42 0.0872413845723 2.2896114996
137 45 0.0978418436528 1.61899981765
137 82 0.0933341508961 6.27035933128
137 106 0.0753539566967 5.45036555119
137 131 0.0796960882701 2.09011977709
137 140 0.069947839671 2.95587573575
137 143 0.0800477806485 0.934729980539
137 144 0.0790821573899 1.32190781564
137 195 0.0853862397682 5.76206258103
137 205 0.0814216232828 5.11972695518
137 238 0.0790774636744 3.96572344691
137 240 0.0836632945742 2.2896114996
137 252 0.0855247053996 2.09011977709
137 261 0.0941734160254 2.80418994162
137 269 0.0678115304681 4.28347089017
137 322 0.0754811946339 5.76206258103
137 329 0.0762586360874 6.27035933128
137 348 0.0804877404667 5.03367499537
137 354 0.0699301550335 2.80418994162
137 356 0.0768916539393 2.80418994162
137 361 0.0619650478642 4.28347089017
137 363 0.0725930974077 2.80418994162
137 369 0.0925915436438 4.28347089017
137 372 0.0844210004535 2.64381563127
137 387 0.0860257849413 2.80418994162
137 463 0.0738129012758 4.76620641071
137 498 0.0833601796032 3.96572344691
137 524 0.0722018303547 4.07439352467
137 603 0.0814675542969 5.03367499537
137 606 0.0706936622769 4.76620641071
137 612 0.0828894848146 4.28347089017
137 620 0.0747694087772 3.96572344691
137 634 0.0678336822156 5.28763126254
137 741 0.0708760318996 5.11972695518
137 754 0.0886888832049 6.0577426269
137 759 0.086725541345 4.6736499027
137 792 0.066861672698 5.98519219385
137 866 0.0825315311437 6.27035933128
139 47 0.0858144497154 3.85399044119
139 48 0.0772723843716 2.95587573575
139 103 0.0628418174126 3.85399044119
139 107 0.0769541259215 6.27035933128
139 111 0.0876958633334 3.37021687355
139 117 0.0728836349128 5.03367499537
139 126 0.0645748545552 4.76620641071
139 127 0.0664060478262 3.85399044119
139 130 0.0846019990209 1.32190781564
139 198 0.0742040588907 5.98519219385
139 234 0.0848633599747 2.2896114996
139 236 0.0881221853967 2.2896114996
139 243 0.0776529560991 1.61899981765
139 252 0.0842665474373 0.934729980539
139 257 0.0621644980258 2.2896114996
139 264 0.0848648391113 2.2896114996
139 319 0.0856969181304 5.98519219385
139 324 0.0860933741959 5.76206258103
139 331 0.0885038275694 6.27035933128
139 348 0.0682475762315 3.85399044119
139 355 0.0723372496022 3.2379996353
139 366 0.0836159941595 2.2896114996
139 372 0.0789345909315 4.18023955419
139 457 0.088371733341 5.52993714052
139 475 0.0823424490484 4.07439352467
139 477 0.0858487858646 4.07439352467
139 603 0.0796371397359 5.98519219385
139 604 0.0782133116039 5.45036555119
139 607 0.0638266398461 4.6736499027
139 622 0.0800523543542 3.96572344691
139 633 0.0837080558492 3.85399044119
139 642 0.0717499868888 3.96572344691
139 744 0.0734270382328 5.03367499537
139 758 0.0767789054141 5.45036555119
139 792 0.0707153497784 6.27035933128
139 875 0.0874829430527 5.98519219385
139 878 0.0806044898959 6.20029725149
146 37 0.0887975908915 3.85399044119
146 103 0.0760292623824 6.27035933128
146 107 0.0834811060134 5.03367499537
146 129 0.0803401931393 3.37021687355
146 132 0.0887088913347 5.45036555119
146 133 0.0805296318237 2.64381563127
146 135 0.0909983095964 1.86945996108
146 147 0.0773029557569 0.934729980539
146 151 0.0818167506998 1.32190781564
146 211 0.0760647137745 5.68574050157
146 218 0.0855818281542 5.52993714052
146 255 0.0706633502292 1.32190781564
146 264 0.0768291235714 2.95587573575
146 332 0.0887904444884 5.9117514715
146 342 0.0760547964972 5.03367499537
146 381 0.083964639643 2.80418994162
146 383 0.0767454842321 4.28347089017
146 385 0.0619882180589 2.09011977709
146 391 0.0838655890837 2.2896114996
146 394 0.0774763923363 2.80418994162
146 396 0.0723771733472 2.80418994162
146 510 0.0801951519264 3.49743933632
146 515 0.0823162152561 2.95587573575
146 526 0.0876631136422 4.07439352467
146 604 0.0959237468379 6.0577426269
146 649 0.101822799588 4.6736499027
146 659 0.0815779390526 4.57922299921
146 662 0.0734622068991 4.28347089017
146 740 0.0708812709228 5.98519219385
146 768 0.0796843130679 5.11972695518
146 896 0.0763740206414 5.98519219385
163 7 0.0790193538677 3.85399044119
163 25 0.095764344626 5.76206258103
163 89 0.0783041737323 3.96572344691
163 95 0.0874228984678 6.0577426269
163 167 0.0698531458781 3.73891992216
163 175 0.0688554867219 2.95587573575
163 176 0.0776140723461 3.85399044119
163 277 0.0739871987948 3.10014862574
163 284 0.0871821808541 1.32190781564
163 289 0.0634651624921 3.10014862574
163 293 0.0695204377076 1.61899981765
163 302 0.069370395534 2.09011977709
163 305 0.0886638151592 3.49743933632
163 344 0.0788893549004 6.33964717314
163 410 0.0892011281315 2.09011977709
163 412 0.0719043403114 2.09011977709
163 432 0.080211461761 2.64381563127
163 436 0.0713378925915 4.57922299921
163 446 0.0654836685068 4.3842722319
163 537 0.0730534605644 3.49743933632
163 545 0.0814564700914 2.95587573575
163 549 0.0720862440828 5.45036555119
163 562 0.0894667342901 4.3842722319
163 565 0.0732644014342 3.37021687355
163 568 0.0776773557328 4.3842722319
163 665 0.0804592491423 4.28347089017
163 667 0.0890828371462 3.96572344691
163 672 0.0870478080619 4.18023955419
163 676 0.0855187042033 4.18023955419
163 682 0.0939026712151 3.96572344691
163 713 0.0703908853188 5.28763126254
163 798 0.0691977060119 5.11972695518
163 813 0.0752372585323 5.11972695518
163 814 0.071236923316 4.85699945296
163 835 0.0817512645624 5.52993714052
163 847 0.0913434129407 6.27035933128
163 926 0.086116266187 5.98519219385
166 4 0.07104271449 3.85399044119
166 6 0.0808736576228 2.80418994162
166 24 0.0690202416754 5.11972695518
166 57 0.0860581548577 3.85399044119
166 78 0.0988244761022 2.2896114996
166 87 0.0749732221044 3.49743933632
166 99 0.0819738975581 5.52993714052
166 152 0.0839779276214 5.68574050157
166 163 0.0777696700202 2.80418994162
166 171 0.0821635037294 3.85399044119
166 184 0.0804003873053 2.09011977709
166 187 0.0768463258578 2.64381563127
166 202 0.0804932353011 3.85399044119
166 284 0.0865376354802 2.09011977709
166 286 0.0778081413083 0.934729980539
166 295 0.069613569691 1.32190781564
166 309 0.0781153569574 4.28347089017
166 342 0.0882996838419 5.98519219385
166 401 0.0760428345096 4.28347089017
166 405 0.0878741660506 2.09011977709
166 408 0.0812283084642 5.9117514715
166 416 0.0815434779906 2.64381563127
166 438 0.0723994479694 3.85399044119
166 543 0.0845140432623 4.6736499027
166 568 0.0897493571887 3.37021687355
166 598 0.0661586656767 5.52993714052
166 668 0.0723586650135 3.96572344691
166 678 0.0780098992523 3.85399044119
166 695 0.0806125572223 4.28347089017
166 728 0.0849617111387 6.27035933128
166 831 0.0811929729946 5.3696149308
166 832 0.077703960257 5.76206258103
166 937 0.0857311358007 6.27035933128
166 950 0.0723430090373 5.68574050157
166 961 0.0748022946752 5.9117514715
169 21 0.0806150196686 4.57922299921
169 90 0.0832894792404 4.07439352467
169 152 0.0951252296094 1.86945996108
169 193 0.0931495012222 5.03367499537
169 208 0.0760927853541 3.85399044119
169 282 0.079834314858 2.2896114996
169 304 0.0740252461067 4.85699945296
169 312 0.066825996734 2.80418994162
169 315 0.0731100704913 5.11972695518
169 325 0.0628456991378 6.33964717314
169 413 0.0894206228197 5.11972695518
169 461 0.0761396681993 5.03367499537
169 546 0.0828916427143 5.52993714052
169 553 0.0862449350921 3.37021687355
169 554 0.0743209190414 3.96572344691
169 555 0.0804217287939 4.6736499027
169 584 0.0803708310037 4.3842722319
169 673 0.0825749093879 4.28347089017
169 682 0.0781531947689 4.18023955419
169 854 0.0859588988464 6.27035933128
169 947 0.0777314089914 6.27035933128
170 9 0.0986956387943 3.2379996353
170 13 0.0917556875467 6.20029725149
170 22 0.0759150092766 4.57922299921
170 78 0.0842911320687 5.76206258103
170 154 0.0857479923695 2.09011977709
170 157 0.0855992594855 4.18023955419
170 191 0.0845857861127 2.64381563127
170 290 0.0785426830052 0.934729980539
170 296 0.0981971662567 5.68574050157
170 312 0.0903283964161 2.2896114996
170 326 0.0772995082545 6.33964717314
170 435 0.0643447249999 5.11972695518
170 455 0.0820490550974 5.03367499537
170 469 0.0917642253943 5.03367499537
170 542 0.0729482631167 2.95587573575
170 552 0.0815142115597 2.80418994162
170 555 0.067014193303 3.96572344691
170 686 0.0786988401213 5.98519219385
170 691 0.0890294875632 3.85399044119
170 706 0.0767344025954 6.27035933128
170 711 0.0800317564038 4.6736499027
170 715 0.0770366169118 5.98519219385
170 807 0.0696095254527 6.0577426269
170 827 0.067139376282 5.52993714052
170 846 0.0807839753144 5.76206258103
170 956 0.0713195465778 5.68574050157
174 0 0.0780117979192 2.09011977709
174 30 0.075710201778 5.11972695518
174 40 0.0927326701505 6.20029725149
174 62 0.075492852309 2.2896114996
174 63 0.069386139378 4.76620641071
174 72 0.0944276566039 3.96572344691
174 81 0.0832022541445 3.49743933632
174 84 0.0804647600122 2.09011977709
174 121 0.0775536728541 5.98519219385
174 153 0.0889515303383 4.18023955419
174 157 0.0914385179291 1.86945996108
174 164 0.0826573926267 1.32190781564
174 170 0.0769278678032 3.73891992216
174 186 0.0635333915042 2.09011977709
174 187 0.0767846302344 2.95587573575
174 191 0.0798959823742 2.64381563127
174 199 0.0842443204759 3.96572344691
174 205 0.0739036113424 3.96572344691
174 214 0.0952582983254 4.18023955419
174 219 0.0736120150152 5.45036555119
174 274 0.0643660047376 2.80418994162
174 295 0.0786100363416 1.32190781564
174 296 0.0754994562034 2.09011977709
174 297 0.071509416537 2.95587573575
174 304 0.0942934802909 1.32190781564
174 317 0.0875490409596 2.80418994162
174 356 0.0658977303031 5.98519219385
174 404 0.0895846456285 2.64381563127
174 412 0.0698078128893 2.2896114996
174 417 0.0730206762326 4.28347089017
174 475 0.0710102804043 5.3696149308
174 534 0.0855374630187 4.3842722319
174 560 0.083866334155 4.6736499027
174 602 0.083548317008 5.76206258103
174 677 0.0640216339437 3.96572344691
174 692 0.0655632788112 4.76620641071
174 735 0.0879792236031 6.27035933128
174 804 0.0895649580882 5.52993714052
174 819 0.0809096681336 5.03367499537
174 826 0.0979084741381 5.11972695518
174 973 0.0700300564537 6.20029725149
174 981 0.0858296051247 6.27035933128
181 14 0.0828310679293 5.98519219385
181 24 0.0780863525158 4.3842722319
181 84 0.0576238006685 3.10014862574
181 99 0.0757942847684 3.10014862574
181 115 0.0848708983004 4.85699945296
181 118 0.0761035899687 5.11972695518
181 183 0.0787532078919 1.86945996108
181 202 0.0694338079865 3.37021687355
181 208 0.0931226878772 2.95587573575
181 230 0.0838676989681 4.76620641071
181 233 0.0697904205635 5.98519219385
181 283 0.0809842217744 2.2896114996
181 315 0.0790922470175 3.10014862574
181 413 0.074515744145 3.85399044119
181 420 0.079501596899 2.09011977709
181 425 0.0823676840909 5.11972695518
181 435 0.0793877221402 4.18023955419
181 452 0.0619136109542 2.64381563127
181 455 0.0899827725261 3.85399044119
181 470 0.0917340312049 4.18023955419
181 556 0.0849397751976 4.07439352467
181 592 0.0913002545739 4.07439352467
181 694 0.0751722163583 4.18023955419
181 705 0.0793417812283 4.76620641071
181 803 0.0784413660193 5.11972695518
181 807 0.0779699047757 5.76206258103
181 813 0.0784664403097 4.85699945296
181 848 0.0802078932309 6.27035933128
181 853 0.0667950633522 5.52993714052
188 23 0.0814794983399 5.76206258103
188 27 0.0689677340677 3.49743933632
188 32 0.092958200976 5.03367499537
188 59 0.0921035439157 5.11972695518
188 62 0.0784756054764 2.80418994162
188 74 0.0870378489454 5.68574050157
188 82 0.0740133803515 5.76206258103
188 90 0.0815728990725 5.98519219385
188 96 0.0855324957476 2.09011977709
188 105 0.0879645408312 2.95587573575
188 193 0.075848950902 3.85399044119
188 217 0.0748686413353 2.95587573575
188 274 0.0826025253826 6.33964717314
188 294 0.0777514272195 3.96572344691
188 298 0.0833736326678 1.32190781564
188 303 0.0704056339726 4.76620641071
188 326 0.0739488461826 2.80418994162
188 327 0.0825889755074 2.2896114996
188 329 0.0824539055388 2.2896114996
188 347 0.082359140354 3.85399044119
188 424 0.0868291348695 3.49743933632
188 447 0.0887813163118 2.80418994162
188 455 0.0856302593012 4.57922299921
188 472 0.0939653368984 6.27035933128
188 488 0.0676819638021 5.11972695518
188 545 0.0834419965723 5.76206258103
188 578 0.0810713243862 4.07439352467
188 600 0.0838255262639 3.96572344691
188 608 0.0625980898875 4.6736499027
188 698 0.0774574023261 3.85399044119
188 715 0.0765661675959 5.60837988324
188 743 0.0868384544412 6.27035933128
188 839 0.0710193276632 5.52993714052
188 848 0.0679263895785 5.76206258103
188 862 0.0841131404743 5.52993714052
188 964 0.0799940029715 5.60837988324
189 18 0.0962712371638 5.11972695518
189 29 0.0794616948028 3.85399044119
189 53 0.0732641301946 4.76620641071
189 90 0.0796920598058 2.2896114996
189 135 0.07726709149 6.33964717314
189 154 0.0822994482997 3.85399044119
189 158 0.0726317742923 5.98519219385
189 169 0.0622694678546 2.09011977709
189 174 0.0732301451427 4.18023955419
189 204 0.0853967623701 5.68574050157
189 208 0.0728255953629 1.86945996108
189 300 0.0981440635835 1.32190781564
189 311 0.075100922882 0.934729980539
189 324 0.0789871032387 3.96572344691
189 334 0.0839004566907 5.11972695518
189 353 0.0813222684677 4.76620641071
189 362 0.0702080033325 5.11972695518
189 401 0.0719549847429 4.28347089017
189 420 0.0781665224119 2.80418994162
189 430 0.0912192832604 2.09011977709
189 434 0.0804425708625 4.28347089017
189 442 0.0725537719022 2.09011977709
189 453 0.0830888632696 2.80418994162
189 456 0.0641225672854 5.11972695518
189 463 0.0747388952917 4.57922299921
189 465 0.0822811783973 6.20029725149
189 473 0.0872341128739 5.03367499537
189 482 0.0777826316217 5.03367499537
189 588 0.0831848389701 6.33964717314
189 592 0.0717330580184 3.37021687355
189 701 0.0767164492277 3.85399044119
189 716 0.0790653615688 6.0577426269
189 824 0.0788937487235 4.76620641071
189 828 0.0779935040902 6.0577426269
189 935 0.0905104863661 6.27035933128
189 978 0.0839598070176 5.76206258103
208 30 0.085868804103 3.49743933632
208 40 0.0706938272975 6.20029725149
208 51 0.0755842687999 5.68574050157
208 103 0.0704507299442 5.68574050157
208 110 0.0867338637159 3.96572344691
208 152 0.083628632228 5.68574050157
208 163 0.0879328416833 5.03367499537
208 169 0.071024826271 3.85399044119
208 184 0.092175955639 4.6736499027
208 190 0.09324726611 2.09011977709
208 250 0.0900685252211 5.98519219385
208 261 0.0834715261406 6.27035933128
208 301 0.079049818319 3.10014862574
208 353 0.0649014116854 3.49743933632
208 356 0.0788668277123 5.98519219385
208 421 0.0757190029738 4.57922299921
208 433 0.0785842534819 4.3842722319
208 443 0.0749520162644 3.2379996353
208 462 0.0812340118168 3.37021687355
208 469 0.0703084624169 2.09011977709
208 470 0.0927563631098 2.2896114996
208 480 0.0752862288823 2.80418994162
208 542 0.0726018352476 5.45036555119
208 566 0.0851328666148 4.85699945296
208 586 0.0803033424189 4.76620641071
208 691 0.0756645069787 4.6736499027
208 721 0.0819629958698 3.73891992216
208 823 0.0852240449723 5.52993714052
211 22 0.079146769056 2.09011977709
211 27 0.0779861488412 4.18023955419
211 46 0.065692890413 4.28347089017
211 60 0.0765315835089 4.85699945296
211 78 0.0874761816664 4.07439352467
211 79 0.0672973728678 4.76620641071
211 84 0.084582744789 2.2896114996
211 118 0.0878733490758 2.09011977709
211 121 0.0744101245807 3.49743933632
211 141 0.0972920834862 4.76620641071
211 161 0.0829656005522 5.45036555119
211 173 0.0723384021572 3.73891992216
211 175 0.0761012904268 4.18023955419
211 284 0.0701665273819 4.76620641071
211 317 0.0849728785912 3.49743933632
211 319 0.0711447578131 5.11972695518
211 359 0.0764500495779 5.98519219385
211 367 0.0772232777361 4.76620641071
211 370 0.0704960518485 4.28347089017
211 404 0.0835455992054 5.98519219385
211 408 0.0803103400067 6.27035933128
211 423 0.0765122014571 4.28347089017
211 425 0.0843682734768 5.03367499537
211 433 0.0862981813416 3.37021687355
211 456 0.0819954564781 2.80418994162
211 459 0.0901047856246 5.11972695518
211 479 0.0678765170115 3.85399044119
211 481 0.0768683559209 2.80418994162
211 545 0.0755086660991 5.45036555119
211 552 0.0869689037374 5.45036555119
211 565 0.0740159707876 4.07439352467
211 567 0.100398340809 4.07439352467
211 570 0.0793568950882 5.45036555119
211 587 0.0760813354377 3.49743933632
211 592 0.0753252828258 3.96572344691
211 611 0.0838409760452 3.37021687355
211 630 0.0862350375251 5.03367499537
211 692 0.0784973570552 5.03367499537
211 742 0.0803414789623 4.57922299921
211 764 0.0795794756412 6.27035933128
211 827 0.0917373250352 5.45036555119
211 846 0.0684259795049 4.85699945296
211 977 0.0921620543202 6.33964717314
211 988 0.0741579582654 5.60837988324
212 0 0.0756282639095 4.28347089017
212 11 0.0797718243859 2.64381563127
212 33 0.0863013988493 2.80418994162
212 43 0.0738247052476 3.37021687355
212 48 0.0864276517315 4.18023955419
212 53 0.0719012338078 5.76206258103
212 77 0.0755986516026 3.10014862574
212 116 0.0853104878294 3.49743933632
212 158 0.0906703284026 5.68574050157
212 166 0.080928190448 4.76620641071
212 173 0.0888908337146 3.85399044119
212 187 0.0768396544909 3.96572344691
212 189 0.072095569474 4.18023955419
212 191 0.0924538608693 2.64381563127
212 218 0.085190338072 3.85399044119
212 224 0.0776197404349 2.09011977709
212 227 0.0826517248686 4.76620641071
212 239 0.0870344654302 3.37021687355
212 286 0.0711161690211 4.85699945296
212 334 0.0922197360297 1.32190781564
212 338 0.0793397342497 4.76620641071
212 343 0.0696520586653 1.32190781564
212 353 0.0865899659278 2.2896114996
212 362 0.0825150475539 3.49743933632
212 364 0.0779206688931 2.95587573575
212 375 0.0872285119664 4.28347089017
212 425 0.0798389398645 4.57922299921
212 447 0.0829296275877 3.2379996353
212 463 0.0692109179413 1.86945996108
212 473 0.0875526923464 2.09011977709
212 484 0.0756601733839 2.80418994162
212 497 0.0756919036015 5.03367499537
212 501 0.0965704553491 4.28347089017
212 517 0.0772850587526 5.9117514715
212 573 0.0854474586472 5.03367499537
212 601 0.0831730502872 5.45036555119
212 623 0.0729084358836 4.85699945296
212 632 0.0798428487327 5.45036555119
212 641 0.0728314614185 6.12943438421
212 675 0.0611502253782 6.0577426269
212 688 0.0769247276037 5.98519219385
212 718 0.0662080090681 4.76620641071
212 732 0.0942189576629 3.96572344691
212 736 0.0869738070159 4.76620641071
212 757 0.0703009311458 5.3696149308
212 816 0.0864313653482 6.0577426269
212 818 0.0953918904823 6.0577426269
212 855 0.0811830266408 5.03367499537
212 857 0.0728913134653 4.6736499027
212 973 0.0793153434268 6.20029725149
212 984 0.0702130911669 6.33964717314
222 10 0.0798656081871 3.49743933632
222 21 0.071843662414 3.49743933632
222 25 0.0723575759148 2.2896114996
222 84 0.075690307935 2.95587573575
222 86 0.0743087030259 3.49743933632
222 106 0.0859464006333 3.85399044119
222 109 0.0753572917161 1.32190781564
222 115 0.0739813323194 3.96572344691
222 176 0.0620623817572 5.03367499537
222 179 0.0854181698673 5.98519219385
222 181 0.0863318441779 4.6736499027
222 208 0.0648805125454 3.85399044119
222 218 0.0769560048464 3.73891992216
222 225 0.0841226523404 2.80418994162
222 229 0.0789903265056 2.95587573575
222 250 0.0741351396116 2.95587573575
222 290 0.0813375252293 6.0577426269
222 300 0.0783174972642 5.3696149308
222 351 0.0769949473717 3.10014862574
222 378 0.0812720329652 4.28347089017
222 387 0.0846560045216 4.76620641071
222 393 0.0792826639889 5.68574050157
222 420 0.0833240717747 5.76206258103
222 421 0.0891617333774 5.3696149308
222 453 0.0710400549384 3.2379996353
222 469 0.0669749692205 4.18023955419
222 473 0.0714984655809 1.86945996108
222 474 0.07859304653 2.09011977709
222 487 0.0799024135867 4.28347089017
222 514 0.0747807586619 5.76206258103
222 575 0.072104766615 4.3842722319
222 590 0.088019802247 5.03367499537
222 597 0.0846922003646 3.10014862574
222 617 0.0896996973076 5.52993714052
222 619 0.0683321927078 3.49743933632
222 623 0.0754904218676 4.3842722319
222 624 0.0855626014111 5.03367499537
222 696 0.0766416311297 5.3696149308
222 706 0.0868878217691 4.76620641071
222 717 0.0784923356191 4.57922299921
222 724 0.0842200255263 3.96572344691
222 727 0.0764134359462 4.28347089017
222 744 0.081821355054 4.76620641071
222 757 0.077285354116 4.76620641071
222 854 0.0812148413587 5.52993714052
222 864 0.0872243151993 4.76620641071
222 866 0.0891773403775 4.76620641071
222 869 0.0891970302328 5.98519219385
222 877 0.0866631612972 6.0577426269
222 880 0.0814068925383 5.11972695518
222 887 0.0912302862163 6.12943438421
222 980 0.0827244978692 5.98519219385
222 997 0.0742969847642 5.9117514715
222 1006 0.0845115769795 6.33964717314
222 1017 0.0720264335463 5.9117514715
226 33 0.10051321847 2.64381563127
226 36 0.0820160578596 5.98519219385
226 71 0.0807823881913 4.85699945296
226 79 0.0946206593208 3.96572344691
226 118 0.0843250283894 4.85699945296
226 138 0.0896639966528 3.49743933632
226 142 0.0738268516238 5.3696149308
226 187 0.0837669393047 3.85399044119
226 205 0.0802613688132 2.09011977709
226 207 0.075275304074 2.09011977709
226 211 0.0868893176272 4.76620641071
226 224 0.0795218712919 1.86945996108
226 227 0.0745389228681 0.934729980539
226 241 0.0785267055517 4.18023955419
226 243 0.078895009796 2.64381563127
226 251 0.0903717886262 3.37021687355
226 252 0.0672017444961 2.95587573575
226 303 0.0892084797846 6.0577426269
226 328 0.0814708589173 2.09011977709
226 335 0.0761634429311 2.2896114996
226 354 0.0925880073459 3.96572344691
226 364 0.0825248696827 4.28347089017
226 366 0.082050749482 2.80418994162
226 459 0.0916510952079 2.64381563127
226 468 0.0792188845833 2.2896114996
226 489 0.0660174949959 6.20029725149
226 495 0.0847619106367 2.64381563127
226 580 0.0760579527655 4.07439352467
226 595 0.0945484674977 5.52993714052
226 606 0.0750040520331 3.37021687355
226 615 0.0814431038494 3.10014862574
226 631 0.0893299174099 4.3842722319
226 639 0.0856448480933 5.45036555119
226 688 0.0685298099974 6.0577426269
226 698 0.060392422655 5.3696149308
226 700 0.08079667502 5.3696149308
226 705 0.0828199789904 5.98519219385
226 710 0.0646461954989 4.76620641071
226 729 0.0721719053462 3.85399044119
226 753 0.0797362787229 4.18023955419
226 830 0.0859518434136 6.27035933128
226 870 0.0688677592782 4.76620641071
226 883 0.0647200904686 5.3696149308
226 1003 0.0767795860224 5.60837988324
228 18 0.080419562425 5.76206258103
228 21 0.0753691453306 2.80418994162
228 38 0.0806004172066 4.18023955419
228 41 0.0682491017802 2.80418994162
228 45 0.0903982241047 5.98519219385
228 47 0.0858334148674 3.85399044119
228 84 0.0733375545729 5.3696149308
228 106 0.088112466536 1.32190781564
228 116 0.0816902733091 1.32190781564
228 125 0.0859291920948 1.61899981765
228 130 0.0790733036303 5.76206258103
228 184 0.0636221391033 5.98519219385
228 210 0.0724104755741 2.64381563127
228 234 0.0764464802775 5.60837988324
228 238 0.0629136976041 1.32190781564
228 242 0.0899824691021 4.76620641071
228 246 0.0795612050445 1.86945996108
228 301 0.0748413841719 4.85699945296
228 340 0.0743688758061 1.61899981765
228 353 0.0864687245508 2.95587573575
228 356 0.0757108792446 5.68574050157
228 364 0.0775025414356 3.96572344691
228 373 0.0769889590692 4.28347089017
228 388 0.084270697048 6.0577426269
228 432 0.0668224612606 5.3696149308
228 445 0.0920960499607 5.60837988324
228 462 0.0832709089003 3.85399044119
228 587 0.0756441780029 6.12943438421
228 611 0.0676630931815 3.96572344691
228 637 0.0755479615085 4.85699945296
228 645 0.0596329994755 5.03367499537
228 652 0.075814982261 5.52993714052
228 653 0.0890628333431 5.76206258103
228 659 0.0778275102519 6.33964717314
228 834 0.083296673148 5.98519219385
228 856 0.0790372505316 5.76206258103
228 865 0.0696711367724 6.0577426269
228 871 0.0817734773565 5.03367499537
228 887 0.09998998042 5.11972695518
240 6 0.0870937968862 5.98519219385
240 75 0.0750647255535 5.68574050157
240 87 0.0797477551581 6.0577426269
240 109 0.0701548667056 2.09011977709
240 117 0.0820664477563 1.61899981765
240 128 0.0778286099789 1.32190781564
240 138 0.0776735663752 3.10014862574
240 141 0.0738808231398 2.09011977709
240 212 0.0811792253537 2.95587573575
240 214 0.0856637379689 3.96572344691
240 224 0.0828462194469 3.37021687355
240 233 0.082963640118 2.09011977709
240 241 0.0680915014274 0.934729980539
240 246 0.0788157569899 2.95587573575
240 247 0.0831148626112 1.32190781564
240 256 0.0868190474512 2.09011977709
240 260 0.0961475422671 2.95587573575
240 312 0.0649672061716 5.11972695518
240 317 0.0843918040613 5.52993714052
240 372 0.0705287911909 1.32190781564
240 397 0.0801995782739 4.76620641071
240 455 0.079249610849 4.28347089017
240 464 0.088964253553 3.85399044119
240 499 0.0787460010305 2.09011977709
240 505 0.0697125043039 5.98519219385
240 588 0.0723212206778 5.45036555119
240 600 0.0763227344216 6.12943438421
240 654 0.0762892729584 4.6736499027
240 711 0.0825768443414 5.98519219385
240 712 0.0753940819426 5.60837988324
240 715 0.0696531278819 5.3696149308
240 731 0.0844799472809 4.28347089017
240 744 0.0803088348984 5.3696149308
240 778 0.0758633817319 5.45036555119
240 1042 0.0681498067882 6.27035933128
254 46 0.0878760358236 2.09011977709
254 99 0.0819146803194 4.76620641071
254 131 0.0853704175958 5.11972695518
254 146 0.0668067759061 1.61899981765
254 225 0.0679406087862 5.98519219385
254 256 0.0808827271589 1.86945996108
254 332 0.0845582923991 4.85699945296
254 334 0.071548252469 5.52993714052
254 361 0.0873904813354 2.2896114996
254 362 0.078960535021 2.09011977709
254 393 0.0849746753032 2.80418994162
254 480 0.082749946621 3.49743933632
254 481 0.0610082893403 3.37021687355
254 500 0.0828048230146 2.80418994162
254 585 0.0794479506496 6.27035933128
254 604 0.0778800985909 5.03367499537
254 613 0.0726650113983 4.85699945296
254 622 0.0812638158947 5.03367499537
254 635 0.0872261922556 2.95587573575
254 732 0.0761595333892 5.3696149308
254 749 0.0785047031107 4.57922299921
254 756 0.0809333377215 3.85399044119
254 775 0.0695635908687 3.96572344691
254 872 0.0805976152812 5.52993714052
254 890 0.0931239089325 5.11972695518
254 891 0.0811667238314 5.52993714052
254 909 0.085086954565 5.52993714052
254 916 0.0685778372083 5.3696149308
254 917 0.0830864771602 5.76206258103
254 1008 0.0895278877801 6.33964717314
254 1027 0.073621811774 6.33964717314
263 30 0.0901845565324 5.3696149308
263 41 0.0672409829953 4.3842722319
263 42 0.0922099786152 3.85399044119
263 44 0.0812309815289 3.37021687355
263 126 0.0819791912568 4.07439352467
263 127 0.0854390516463 3.49743933632
263 145 0.0695879091788 2.95587573575
263 215 0.0901613181475 5.9117514715
263 231 0.0783041297803 4.18023955419
263 241 0.0748723577414 2.95587573575
263 261 0.0881051593649 1.86945996108
263 267 0.0878496105234 1.32190781564
263 337 0.0802082294956 6.33964717314
263 353 0.084685992329 4.28347089017
263 357 0.0999842198102 4.28347089017
263 362 0.0921605444519 4.07439352467
263 364 0.0692311372139 3.10014862574
263 366 0.0818552467716 3.10014862574
263 375 0.083733943873 2.2896114996
263 381 0.0548609466405 1.32190781564
263 382 0.0740298054939 1.61899981765
263 393 0.0878320866786 1.61899981765
263 472 0.0694510238232 5.3696149308
263 474 0.069104674763 5.03367499537
263 513 0.0666269637558 3.49743933632
263 528 0.0712522006458 4.57922299921
263 530 0.0731575648678 3.2379996353
263 532 0.0768566634126 2.64381563127
263 618 0.0774238431886 4.85699945296
263 639 0.0812439533127 2.95587573575
263 645 0.0818176801135 3.96572344691
263 658 0.0758301713442 3.49743933632
263 756 0.0843604213678 5.03367499537
263 781 0.090467601092 5.3696149308
263 912 0.0781958659212 5.45036555119
263 1025 0.0856373747644 6.20029725149
263 1050 0.0806584697448 5.98519219385
266 112 0.0805683138937 6.33964717314
266 144 0.0765453289946 3.49743933632
266 229 0.0666720985341 5.03367499537
266 234 0.0596523950851 5.45036555119
266 249 0.0805080330852 2.95587573575
266 261 0.0819153884439 0.934729980539
266 270 0.071680011688 1.32190781564
266 352 0.0847789638851 4.85699945296
266 364 0.0872463649693 3.96572344691
266 380 0.0820815940052 2.2896114996
266 387 0.084826453712 1.61899981765
266 390 0.0895348493755 3.96572344691
266 392 0.082098550823 0.934729980539
266 397 0.0821996530078 1.32190781564
266 483 0.0867536777201 5.11972695518
266 501 0.0958636610373 3.85399044119
266 519 0.0862105166246 3.49743933632
266 530 0.0689756960954 2.09011977709
266 628 0.0716435629039 3.96572344691
266 757 0.0753260256584 4.6736499027
266 790 0.0869006257864 3.85399044119
266 910 0.065004081771 5.52993714052
266 921 0.0792670159269 4.85699945296
270 48 0.061771718326 4.18023955419
270 140 0.0930175402344 3.49743933632
270 362 0.0784243757969 5.11972695518
270 506 0.0782700347785 4.3842722319
270 515 0.0704040626085 3.2379996353
270 521 0.0909069991938 3.49743933632
270 522 0.0836527263205 2.80418994162
270 619 0.0821501509576 5.52993714052
270 892 0.0770827862134 6.27035933128
270 912 0.0848587894148 6.27035933128
270 1041 0.0831092057423 6.20029725149
270 1059 0.0865805998366 5.68574050157
277 12 0.0770028242269 4.6736499027
277 79 0.0791259014071 3.85399044119
277 154 0.0710561660958 3.85399044119
277 165 0.0864214781421 1.61899981765
277 202 0.081343655572 4.85699945296
277 214 0.0805110077908 5.76206258103
277 271 0.082009248201 5.60837988324
277 288 0.0758055435572 2.09011977709
277 307 0.0681831408883 3.37021687355
277 308 0.0795509446695 3.96572344691
277 405 0.0626317550358 0.934729980539
277 412 0.0916159793376 2.2896114996
277 416 0.0710882725535 2.2896114996
277 431 0.102150959138 4.76620641071
277 435 0.0898671568928 2.95587573575
277 466 0.0811604020561 5.98519219385
277 537 0.0828390919074 2.09011977709
277 553 0.080966951922 4.57922299921
277 554 0.0769715683479 3.85399044119
277 572 0.0835793795723 5.03367499537
277 595 0.0664014391208 6.20029725149
277 676 0.0802869577041 3.10014862574
277 688 0.0771713175265 3.85399044119
277 692 0.0849234351324 5.45036555119
277 705 0.0648628484574 4.76620641071
277 718 0.08250395395 5.76206258103
277 726 0.0857389145459 6.27035933128
277 807 0.0757758151237 3.96572344691
277 821 0.0748526716147 5.03367499537
277 825 0.0941670937409 5.98519219385
277 943 0.0779776740901 5.52993714052
277 1077 0.0739559495209 5.98519219385
277 1087 0.0936100714769 6.20029725149
289 22 0.0728720337097 5.45036555119
289 51 0.0927084288433 2.80418994162
289 53 0.0878616521637 4.57922299921
289 63 0.0862164280595 1.86945996108
289 65 0.0897196564855 2.64381563127
289 98 0.0640083186885 4.57922299921
289 160 0.0822372602324 1.32190781564
289 172 0.0795593427449 2.95587573575
289 201 0.0853092945959 4.76620641071
289 208 0.0747570181198 3.96572344691
289 277 0.0721562327916 5.9117514715
289 289 0.0685927411435 0.0
289 302 0.0725361416489 2.95587573575
289 303 0.0699878981289 3.85399044119
289 305 0.0829471290777 5.68574050157
289 310 0.107672033555 1.86945996108
289 312 0.0719656514365 2.64381563127
289 315 0.0933305453509 5.03367499537
289 331 0.0772856071772 4.6736499027
289 409 0.081710493994 1.61899981765
289 410 0.0695788704289 2.2896114996
289 420 0.0781728578527 2.09011977709
289 470 0.0822598450268 5.11972695518
289 481 0.0693637680636 6.33964717314
289 544 0.0807443398354 3.49743933632
289 564 0.0929633983504 2.80418994162
289 586 0.0772167578898 5.76206258103
289 595 0.0896326262982 5.60837988324
289 596 0.0829453276426 6.27035933128
289 665 0.0861516933248 3.49743933632
289 692 0.080734536977 3.49743933632
289 817 0.0773252328338 5.98519219385
289 926 0.0717502258975 5.11972695518
291 23 0.0865047933379 5.03367499537
291 51 0.0821993453304 2.80418994162
291 65 0.0752491915818 1.86945996108
291 67 0.069348490592 2.64381563127
291 73 0.0745583327951 2.09011977709
291 85 0.0732523642834 4.57922299921
291 86 0.0932594422911 5.3696149308
291 161 0.0996633082135 1.61899981765
291 164 0.0909112711482 2.2896114996
291 167 0.0868968994035 4.85699945296
291 212 0.09570076818 4.76620641071
291 276 0.0816809799276 3.37021687355
291 301 0.0743963059182 0.934729980539
291 314 0.0629483409088 2.64381563127
291 322 0.0942289869345 2.95587573575
291 330 0.0825778772218 3.73891992216
291 339 0.0668574442823 4.76620641071
291 353 0.0758439055719 5.9117514715
291 405 0.0851180617534 4.28347089017
291 408 0.0883028094877 2.2896114996
291 413 0.080329306344 3.10014862574
291 447 0.0713518611634 5.11972695518
291 451 0.0883129770111 3.10014862574
291 542 0.0835572871551 2.2896114996
291 565 0.0886911400804 2.2896114996
291 578 0.0911568108906 4.57922299921
291 585 0.0905593343849 3.49743933632
291 587 0.0737809741715 5.03367499537
291 670 0.0741610715863 5.76206258103
291 677 0.0802044172878 4.76620641071
291 794 0.0669613693944 4.28347089017
291 796 0.0715974977392 4.28347089017
291 947 0.0866378494985 4.76620641071
292 56 0.084277411159 2.80418994162
292 70 0.0866775792375 4.18023955419
292 74 0.0771943049338 2.09011977709
292 89 0.0807692529136 3.49743933632
292 110 0.086593744875 5.3696149308
292 111 0.0764712251935 5.76206258103
292 155 0.0797241370435 2.09011977709
292 167 0.0939435158071 3.96572344691
292 169 0.0827719907636 2.95587573575
292 170 0.0791153385668 2.09011977709
292 181 0.0727643427004 1.61899981765
292 199 0.102740251535 3.10014862574
292 203 0.0739042524906 4.07439352467
292 205 0.0888080774001 5.52993714052
292 210 0.0819160003628 3.85399044119
292 221 0.0807862656126 4.85699945296
292 223 0.0704639875058 5.52993714052
292 278 0.085154452381 4.18023955419
292 282 0.0785921301502 1.32190781564
292 339 0.0874770043635 5.03367499537
292 351 0.0778744277312 5.68574050157
292 402 0.07473886536 2.09011977709
292 408 0.0863147045925 3.10014862574
292 410 0.0712489732343 1.61899981765
292 421 0.0962141020632 0.934729980539
292 423 0.0912717044236 2.09011977709
292 435 0.0916892905212 3.10014862574
292 436 0.0761451867756 3.96572344691
292 444 0.0707819551405 2.2896114996
292 446 0.0748595168852 3.49743933632
292 448 0.0866329962041 5.11972695518
292 465 0.065763252683 5.3696149308
292 472 0.0761417851925 4.85699945296
292 535 0.0783250743581 2.64381563127
292 538 0.0866009579507 3.85399044119
292 547 0.0749859461214 3.49743933632
292 548 0.0939733621905 4.28347089017
292 568 0.0766712548721 3.49743933632
292 577 0.0790736529666 3.2379996353
292 606 0.0631997942609 6.27035933128
292 678 0.0807430321658 4.76620641071
292 702 0.0667113142652 3.85399044119
292 721 0.0876945254955 5.03367499537
292 799 0.0782635461278 5.03367499537
292 846 0.0908300234159 4.6736499027
292 934 0.0764012567917 5.52993714052
292 1071 0.087518189088 5.76206258103
292 1101 0.0656049802705 6.20029725149
295 2 0.0747524696946 2.80418994162
295 13 0.0795810722414 3.49743933632
295 52 0.0807529003256 4.57922299921
295 54 0.0679542556756 2.80418994162
295 67 0.079409279154 2.64381563127
295 80 0.0985459175992 3.49743933632
295 152 0.0941822289608 5.98519219385
295 170 0.0922109866064 4.76620641071
295 173 0.0805192696242 2.09011977709
295 189 0.0955020047614 5.11972695518
295 224 0.0795389657484 4.85699945296
295 276 0.0805740449991 2.09011977709
295 291 0.0777381538594 3.73891992216
295 297 0.0806582456416 1.86945996108
295 301 0.084519272025 3.85399044119
295 317 0.1002961146 2.09011977709
295 354 0.0944254474506 5.68574050157
295 358 0.0721318065358 6.27035933128
295 416 0.080756490109 2.2896114996
295 422 0.0703160340886 2.09011977709
295 426 0.0808459899751 2.09011977709
295 431 0.0697402403162 3.96572344691
295 459 0.0762461808207 4.07439352467
295 465 0.0833825252312 3.96572344691
295 473 0.0860843854062 4.85699945296
295 482 0.0698471238902 5.98519219385
295 487 0.0886708179771 6.33964717314
295 533 0.0724418469928 5.3696149308
295 546 0.0839299837799 2.2896114996
295 561 0.0800066107475 4.18023955419
295 578 0.0745233182488 2.64381563127
295 582 0.0783518866093 4.57922299921
295 588 0.0746248889933 3.49743933632
295 681 0.0785271365105 5.45036555119
295 693 0.079015186304 4.07439352467
295 707 0.0839191078728 3.49743933632
295 711 0.0825930325153 6.12943438421
295 712 0.069566792062 5.45036555119
295 732 0.082713340958 5.76206258103
295 735 0.0756483734545 5.52993714052
295 816 0.0725094528279 4.18023955419
295 820 0.0863557162441 4.18023955419
295 843 0.0765110889181 5.60837988324
295 937 0.0705126935847 5.52993714052
295 952 0.0709089220632 5.03367499537
295 954 0.0825007410861 5.98519219385
295 962 0.0810462228384 4.85699945296
295 981 0.0830604645262 5.52993714052
295 982 0.0794559555892 5.45036555119
295 985 0.0714149727531 6.12943438421
295 1085 0.0804169784509 5.60837988324
295 1093 0.0723351940532 5.98519219385
299 10 0.082257682589 4.76620641071
299 54 0.0955904469727 5.76206258103
299 92 0.0762454369312 5.3696149308
299 109 0.0760194348898 5.60837988324
299 125 0.0763220030026 6.20029725149
299 271 0.0742726537862 2.80418994162
299 275 0.0816527012287 4.6736499027
299 284 0.0680555674019 4.18023955419
299 302 0.0882649084788 2.80418994162
299 322 0.0720514021031 3.37021687355
299 403 0.0615215448842 4.76620641071
299 422 0.0893227518476 3.96572344691
299 424 0.0807796381456 5.76206258103
299 442 0.081357053999 2.2896114996
299 537 0.0751012792693 5.76206258103
299 562 0.0917218171273 1.86945996108
299 566 0.0821980190629 4.18023955419
299 592 0.0554993058257 3.49743933632
299 676 0.0916581005156 5.76206258103
299 682 0.0888524211106 3.49743933632
299 703 0.0749834371746 3.49743933632
299 805 0.0758031758453 5.03367499537
299 835 0.0953504109102 4.28347089017
299 928 0.0756175260758 6.12943438421
299 936 0.0893590763305 5.3696149308
299 1060 0.0896172291363 6.27035933128
305 3 0.0801159515348 3.10014862574
305 4 0.0809181636373 3.96572344691
305 5 0.0697925410583 3.37021687355
305 16 0.0642272294138 3.85399044119
305 29 0.0872313344046 5.45036555119
305 32 0.0737219089183 4.6736499027
305 58 0.0800642007408 3.85399044119
305 62 0.072756003488 2.80418994162
305 65 0.0742473296085 4.28347089017
305 91 0.0831992758892 3.2379996353
305 113 0.0873715640056 4.57922299921
305 120 0.0745721122913 5.03367499537
305 166 0.0706412775929 2.09011977709
305 171 0.0870172327341 3.96572344691
305 185 0.06302982437 0.934729980539
305 190 0.0676967582 3.96572344691
305 242 0.0753970971859 5.68574050157
305 275 0.0767582274235 3.37021687355
305 306 0.0854396535786 0.934729980539
305 332 0.0703913489 3.37021687355
305 355 0.0801134815227 4.6736499027
305 414 0.0786647140011 2.09011977709
305 427 0.0847078721081 3.10014862574
305 433 0.0781472796211 2.09011977709
305 438 0.0742291618496 2.95587573575
305 471 0.0755917607698 4.76620641071
305 477 0.0784391091001 4.76620641071
305 493 0.0811609793526 5.76206258103
305 540 0.0923141487528 3.85399044119
305 555 0.0965882281837 2.80418994162
305 558 0.0687146718481 2.2896114996
305 592 0.0810313990565 5.76206258103
305 595 0.0780548076252 3.85399044119
305 597 0.0640955624867 3.37021687355
305 675 0.0639805533028 3.85399044119
305 708 0.0865058605385 3.49743933632
305 721 0.0749863395389 6.12943438421
305 722 0.0873403543997 5.45036555119
305 735 0.0734592870497 4.76620641071
305 751 0.076564458979 6.33964717314
305 800 0.0900037488538 4.76620641071
305 822 0.0705385055159 5.3696149308
305 833 0.0823161702385 5.28763126254
305 858 0.0847333172136 4.6736499027
305 938 0.0826625006095 5.3696149308
305 949 0.0769556710624 4.85699945296
305 951 0.0823133560431 4.85699945296
305 952 0.0960658680992 5.11972695518
305 992 0.0797376597008 5.76206258103
305 1098 0.0908047624755 6.27035933128
306 23 0.0684061735245 4.85699945296
306 60 0.0753173122522 3.2379996353
306 83 0.0751480488394 3.49743933632
306 84 0.071803541428 2.80418994162
306 92 0.0714994152351 3.2379996353
306 159 0.0803277319043 2.95587573575
306 161 0.0600411330141 5.98519219385
306 163 0.0770905584638 4.28347089017
306 165 0.0917553608783 2.80418994162
306 173 0.100894356087 3.10014862574
306 180 0.0756836057452 5.68574050157
306 193 0.0811452584597 2.2896114996
306 202 0.0903541154139 2.80418994162
306 245 0.0722404690645 5.98519219385
306 301 0.0902745089561 4.6736499027
306 305 0.0761694760284 0.934729980539
306 306 0.0815430022936 0.0
306 327 0.0715566127502 2.09011977709
306 328 0.0857718346802 2.64381563127
306 359 0.0836339612094 5.45036555119
306 424 0.0842456820147 1.61899981765
306 425 0.0848539154953 1.32190781564
306 451 0.0941959433253 5.98519219385
306 457 0.0770740955862 2.09011977709
306 462 0.0823483972976 4.07439352467
306 464 0.0884933542366 3.10014862574
306 465 0.0773390130419 2.95587573575
306 466 0.065044830733 3.10014862574
306 476 0.0757779608725 3.96572344691
306 484 0.0796437404897 4.85699945296
306 600 0.0785291735455 3.85399044119
306 620 0.0821585858042 6.20029725149
306 669 0.0748214071499 4.07439352467
306 692 0.0732480918509 5.45036555119
306 720 0.083634203035 4.3842722319
306 800 0.0780690570493 4.6736499027
306 825 0.0872243676107 5.98519219385
306 830 0.0815639823684 3.73891992216
306 942 0.0871834469657 5.11972695518
306 1085 0.0682560240069 5.76206258103
306 1094 0.0706647672845 5.9117514715
306 1095 0.0883058786495 5.68574050157
309 10 0.0840528607135 6.33964717314
309 59 0.0965000398892 6.20029725149
309 61 0.0825833876224 4.57922299921
309 79 0.0870449644672 2.64381563127
309 80 0.097242703628 2.09011977709
309 114 0.0802818639988 4.28347089017
309 157 0.0644249901509 5.52993714052
309 159 0.0833578118016 4.07439352467
309 167 0.083776034823 3.49743933632
309 188 0.0851459643538 1.32190781564
309 277 0.0824792582453 4.6736499027
309 293 0.0909445838682 5.68574050157
309 308 0.0783025888409 0.934729980539
309 348 0.0773031481791 3.73891992216
309 356 0.0857547799786 5.45036555119
309 414 0.0818568603851 4.28347089017
309 450 0.0704108745201 1.32190781564
309 458 0.07688044186 2.80418994162
309 475 0.0647354693263 4.76620641071
309 485 0.0844043511987 5.52993714052
309 539 0.0893237002599 4.3842722319
309 569 0.065402296803 3.37021687355
309 605 0.0802320879619 5.60837988324
309 609 0.0830424315957 4.18023955419
309 617 0.061397867446 5.03367499537
309 678 0.0816100023816 4.3842722319
309 679 0.0845157366771 3.85399044119
309 684 0.078566113047 6.33964717314
309 738 0.0757748997552 4.6736499027
309 743 0.089113290861 6.12943438421
309 799 0.0769323688042 5.98519219385
309 964 0.0707435866459 4.76620641071
310 4 0.0866947940402 4.07439352467
310 37 0.0813047690086 5.98519219385
310 54 0.0760998603332 6.27035933128
310 59 0.0726263320283 5.03367499537
310 108 0.0793096659752 4.3842722319
310 109 0.0876035504533 5.03367499537
310 154 0.0805423776038 4.28347089017
310 155 0.080796704495 4.76620641071
310 173 0.0806872725142 4.28347089017
310 174 0.0819799397738 5.11972695518
310 184 0.0764254883918 4.85699945296
310 228 0.0700391887961 3.96572344691
310 280 0.0715709520967 2.80418994162
310 281 0.0833187533388 2.95587573575
310 299 0.084659901943 0.934729980539
310 302 0.0855755387757 2.95587573575
310 315 0.0838999035013 4.6736499027
310 325 0.0750359105369 5.68574050157
310 330 0.0764473155666 2.64381563127
310 334 0.0848249033263 5.9117514715
310 353 0.0735561970395 5.28763126254
310 361 0.0714150378091 5.03367499537
310 562 0.0621078096737 2.09011977709
310 565 0.0841677703587 3.49743933632
310 577 0.0717565128393 5.03367499537
310 682 0.0787267896921 3.85399044119
310 703 0.0763481421116 3.37021687355
310 857 0.0862782291675 6.27035933128
310 948 0.0716313376193 6.27035933128
310 966 0.0716822929383 4.6736499027
316 1 0.074629654033 3.49743933632
316 2 0.078890009009 3.37021687355
316 16 0.0770311865622 3.49743933632
316 18 0.0984985016927 2.95587573575
316 31 0.086634686448 4.07439352467
316 35 0.0747996019481 5.98519219385
316 40 0.0740066175297 4.76620641071
316 82 0.0769869770169 3.37021687355
316 84 0.0793188142989 2.09011977709
316 93 0.0887247317764 2.09011977709
316 156 0.0905434811357 4.28347089017
316 180 0.0949573538338 4.85699945296
316 222 0.0696870411006 3.10014862574
316 251 0.0810006312088 5.76206258103
316 282 0.0921326383309 4.6736499027
316 289 0.071735647146 5.9117514715
316 290 0.0817392650918 5.03367499537
316 296 0.0761506155026 2.09011977709
316 300 0.0754075353662 4.76620641071
316 301 0.0678401692672 3.85399044119
316 321 0.0721091716431 3.85399044119
316 322 0.0853862025088 2.95587573575
316 327 0.0845165462579 2.09011977709
316 359 0.0927821323258 5.28763126254
316 408 0.0835357800658 6.33964717314
316 429 0.0786939630514 5.76206258103
316 432 0.076587171949 3.10014862574
316 435 0.0625807190742 1.32190781564
316 436 0.0745912072755 1.61899981765
316 459 0.0543618800047 3.10014862574
316 463 0.0791221577341 2.2896114996
316 469 0.0851402024184 5.52993714052
316 471 0.093892627458 4.07439352467
316 473 0.0817820265136 3.10014862574
316 475 0.0865104205331 3.10014862574
316 482 0.0814170755712 4.28347089017
316 483 0.0810540137251 3.96572344691
316 577 0.084477952289 2.09011977709
316 597 0.0646150885254 2.64381563127
316 599 0.0738578679508 3.2379996353
316 605 0.0797797792843 3.37021687355
316 617 0.078865249646 5.60837988324
316 711 0.0761836935075 5.52993714052
316 717 0.0919547984237 3.10014862574
316 729 0.0808344598006 4.3842722319
316 740 0.0672085048521 5.03367499537
316 849 0.0852160252182 3.96572344691
316 871 0.0777422047354 5.98519219385
316 880 0.0896474766669 6.27035933128
316 943 0.0716223889721 6.12943438421
316 951 0.0750017271577 5.11972695518
316 982 0.0762139931722 4.76620641071
324 17 0.075362319645 2.80418994162
324 22 0.0860369172391 3.49743933632
324 45 0.0709557124125 5.03367499537
324 89 0.0699274882489 3.37021687355
324 99 0.0825777960587 2.80418994162
324 106 0.080005840351 4.57922299921
324 112 0.0762700554403 3.2379996353
324 124 0.0872099018237 5.60837988324
324 127 0.0836909113671 4.28347089017
324 140 0.0695268085666 6.20029725149
324 168 0.0773189961347 4.76620641071
324 177 0.0910663003957 4.07439352467
324 179 0.0801751979419 5.11972695518
324 185 0.0737602040998 2.2896114996
324 191 0.064435664591 2.2896114996
324 199 0.0791069568625 2.95587573575
324 200 0.0850775063841 2.09011977709
324 203 0.0854282309597 1.32190781564
324 245 0.0846786960992 5.3696149308
324 285 0.0700597445673 3.73891992216
324 299 0.0814617235252 5.03367499537
324 318 0.0745807171469 2.95587573575
324 333 0.0727478872363 0.934729980539
324 334 0.080511316659 1.32190781564
324 350 0.0777846725371 4.6736499027
324 369 0.0813619654827 5.98519219385
324 370 0.0646164133646 5.45036555119
324 377 0.0805784458315 5.98519219385
324 400 0.0794402247208 6.0577426269
324 406 0.0836592760101 5.11972695518
324 427 0.0733843255001 4.76620641071
324 430 0.0823510951939 4.28347089017
324 433 0.0832085117587 2.2896114996
324 441 0.0815328946799 3.96572344691
324 457 0.0904570914853 2.09011977709
324 483 0.0896119397094 2.95587573575
324 495 0.0704120956297 5.3696149308
324 548 0.0661241019592 4.57922299921
324 566 0.0829536433635 2.80418994162
324 576 0.0787119129439 2.2896114996
324 582 0.0742179062949 5.11972695518
324 599 0.0767882392908 3.49743933632
324 608 0.0682349824834 4.57922299921
324 623 0.0613878820143 5.03367499537
324 684 0.0870099950528 4.07439352467
324 698 0.0728721998711 4.3842722319
324 700 0.0752835057211 5.76206258103
324 730 0.0717849891404 5.52993714052
324 731 0.0902074618874 3.85399044119
324 743 0.0815825961873 4.3842722319
324 748 0.0719879964029 4.76620641071
324 796 0.0800544336945 6.27035933128
324 810 0.0787691448428 5.98519219385
324 846 0.0626671429874 4.18023955419
324 851 0.0900445001074 5.28763126254
324 888 0.0837944147316 6.27035933128
324 971 0.0798752638771 4.76620641071
324 984 0.0726108291129 5.45036555119
324 987 0.0801156850011 5.11972695518
324 998 0.0742663642001 5.11972695518
324 1006 0.0844092772361 6.12943438421
324 1012 0.0667418404666 6.12943438421
324 1121 0.0841474052448 5.76206258103
326 18 0.0927966905857 2.95587573575
326 23 0.0777967483837 4.07439352467
326 28 0.0779153041626 5.76206258103
326 29 0.0856969539044 5.03367499537
326 34 0.0814386877127 3.49743933632
326 53 0.0767571782032 5.76206258103
326 68 0.0778529164695 3.85399044119
326 89 0.0681538974777 5.03367499537
326 119 0.0865781377271 3.85399044119
326 135 0.0729659246869 5.76206258103
326 165 0.0820121528169 4.28347089017
326 168 0.0910922251438 3.96572344691
326 178 0.0744732558503 3.49743933632
326 191 0.0845045636374 3.96572344691
326 192 0.0754843326871 3.10014862574
326 199 0.0598286786857 4.76620641071
326 202 0.0821339160028 2.09011977709
326 203 0.0712339618002 1.32190781564
326 205 0.0718482530385 1.32190781564
326 233 0.0883748025525 3.10014862574
326 241 0.0784369104573 4.28347089017
326 242 0.0991063556904 3.96572344691
326 275 0.087761311202 5.45036555119
326 288 0.0894102620028 3.85399044119
326 317 0.0799415768839 0.934729980539
326 340 0.0851481246561 5.03367499537
326 414 0.0874958995745 3.96572344691
326 458 0.0799114654475 1.32190781564
326 475 0.0894157503831 2.09011977709
326 479 0.0923202635087 6.33964717314
326 490 0.0857031733698 4.76620641071
326 494 0.0798516286514 3.96572344691
326 504 0.0949058076327 5.11972695518
326 549 0.0834639778644 4.28347089017
326 554 0.0761501744662 5.03367499537
326 585 0.0691169015498 4.18023955419
326 595 0.0874077790663 3.49743933632
326 618 0.0864269153952 5.60837988324
326 619 0.0757900710679 5.03367499537
326 621 0.0792659195242 4.28347089017
326 709 0.0680458265536 3.49743933632
326 717 0.0689554160505 2.80418994162
326 726 0.0726189444299 3.10014862574
326 731 0.0729843310054 5.03367499537
326 734 0.0785090807531 3.49743933632
326 749 0.0763570873891 5.03367499537
326 752 0.0851091108021 4.76620641071
326 759 0.0812455663864 5.52993714052
326 846 0.0884758509858 5.28763126254
326 872 0.0653409832469 5.45036555119
326 874 0.0710025038926 4.76620641071
326 969 0.0753199011996 6.0577426269
326 970 0.0728277450797 5.52993714052
326 1013 0.0793030651773 5.76206258103
326 1017 0.0770610123719 6.27035933128
326 1110 0.0805738050822 6.33964717314
326 1132 0.0742424047984 6.20029725149
327 14 0.0819764934919 2.95587573575
327 32 0.062977786412 3.85399044119
327 34 0.0617085826329 3.37021687355
327 58 0.0779846643354 6.27035933128
327 74 0.0758392457381 5.3696149308
327 82 0.0809466896674 5.11972695518
327 85 0.0804650687476 2.80418994162
327 95 0.0611250631161 1.86945996108
327 103 0.0778547061399 2.2896114996
327 110 0.080817441042 3.85399044119
327 178 0.0772151611817 3.10014862574
327 195 0.0793371214636 1.61899981765
327 207 0.0769104723483 2.09011977709
327 213 0.0849867231358 2.2896114996
327 250 0.0731039756451 5.11972695518
327 252 0.072489723908 4.76620641071
327 258 0.0717754382633 5.76206258103
327 305 0.0881730357167 2.64381563127
327 308 0.0795841367381 2.09011977709
327 309 0.0847497758507 2.64381563127
327 313 0.0807544029279 4.76620641071
327 333 0.080405482509 2.95587573575
327 345 0.0793327287759 2.09011977709
327 346 0.0751592664947 1.86945996108
327 347 0.0949277329782 2.09011977709
327 356 0.074803921452 2.95587573575
327 381 0.0758681569142 5.9117514715
327 407 0.0734506848143 4.76620641071
327 424 0.087181009461 3.49743933632
327 449 0.0851375088933 1.61899981765
327 450 0.0662959300191 2.2896114996
327 452 0.0818252615837 5.68574050157
327 458 0.0673349647968 0.934729980539
327 474 0.0894072854814 2.80418994162
327 537 0.0717768151467 5.76206258103
327 539 0.0698342397481 5.11972695518
327 546 0.0850873871939 5.03367499537
327 550 0.080530767557 4.28347089017
327 554 0.086033261536 5.76206258103
327 559 0.0893993257921 3.37021687355
327 568 0.0735730894134 3.2379996353
327 570 0.0785634345107 2.64381563127
327 616 0.081773681552 3.49743933632
327 623 0.0814100696955 4.18023955419
327 630 0.0933232610264 5.3696149308
327 640 0.0882287303693 5.98519219385
327 679 0.0804329712268 4.6736499027
327 693 0.0703065098197 5.76206258103
327 716 0.0841259820807 3.37021687355
327 730 0.0864998417392 3.49743933632
327 744 0.0786475462157 3.96572344691
327 770 0.0737884026397 6.27035933128
327 837 0.0950509338792 5.3696149308
327 943 0.0706107286978 6.0577426269
327 981 0.0830374521418 5.45036555119
327 1013 0.082778564986 5.52993714052
327 1125 0.0647939134225 5.68574050157
327 1145 0.0727841655526 6.33964717314
330 5 0.0926922986105 4.3842722319
330 40 0.0697488075418 5.76206258103
330 43 0.0734766844659 4.85699945296
330 50 0.0768082158779 5.76206258103
330 61 0.0653170267699 6.27035933128
330 73 0.0747695092397 3.37021687355
330 75 0.0967947949077 3.85399044119
330 82 0.0719566661152 2.80418994162
330 89 0.0879731243417 2.09011977709
330 112 0.0731162055283 5.11972695518
330 133 0.0844479108547 4.18023955419
330 134 0.0946082341735 4.28347089017
330 143 0.0717262744665 6.27035933128
330 194 0.08869699499 4.28347089017
330 203 0.0843588342556 3.96572344691
330 204 0.0799162931832 4.85699945296
330 232 0.0878708329112 3.49743933632
330 257 0.0800971495066 6.0577426269
330 284 0.0878648958688 5.03367499537
330 307 0.0867448676106 6.27035933128
330 314 0.0873796327878 2.64381563127
330 327 0.0804703868962 5.68574050157
330 330 0.0725933377831 0.0
330 345 0.0862776535191 4.76620641071
330 375 0.0833024789455 5.98519219385
330 418 0.0900145095928 4.28347089017
330 424 0.0776421179396 5.3696149308
330 434 0.0805115376388 4.07439352467
330 471 0.0685394424098 1.61899981765
330 483 0.0961173171076 3.49743933632
330 551 0.0714241697331 4.57922299921
330 554 0.0848195538758 4.28347089017
330 574 0.0809587214872 2.64381563127
330 588 0.0834815925703 5.11972695518
330 620 0.0802290281445 4.3842722319
330 628 0.0735657211266 4.57922299921
330 695 0.0807788419362 4.85699945296
330 697 0.0850104546593 6.12943438421
330 725 0.083753608791 3.96572344691
330 734 0.0779621526485 4.76620641071
330 814 0.093146588814 5.28763126254
330 845 0.0725551239842 3.85399044119
330 865 0.0824976614278 4.76620641071
330 887 0.0976207576701 5.28763126254
330 982 0.0825702916814 6.0577426269
330 1090 0.0754584512415 6.33964717314
330 1140 0.0680851798424 5.9117514715
330 1150 0.0770162555839 6.27035933128
335 0 0.0753629995653 5.45036555119
335 9 0.0871621233133 5.03367499537
335 16 0.0680113514825 4.07439352467
335 19 0.0799337899742 2.95587573575
335 21 0.0839948833241 5.45036555119
335 34 0.0925198479308 3.10014862574
335 39 0.0828657317245 3.49743933632
335 50 0.0729862844236 6.12943438421
335 94 0.081378544738 2.09011977709
335 105 0.0746936597612 2.64381563127
335 106 0.0678314215882 5.98519219385
335 111 0.0854199320921 2.2896114996
335 116 0.0928264329247 5.3696149308
335 131 0.0957382654117 3.49743933632
335 138 0.0831357449912 4.18023955419
335 139 0.0894264966181 4.28347089017
335 147 0.0832732398475 6.20029725149
335 166 0.0695118720656 4.85699945296
335 172 0.0741239163537 5.3696149308
335 173 0.0842034404981 4.76620641071
335 193 0.0787015802213 2.80418994162
335 204 0.080481363753 1.32190781564
335 212 0.0802692024276 2.09011977709
335 226 0.0880426291636 2.2896114996
335 228 0.0702751287606 5.98519219385
335 233 0.0831472621162 2.2896114996
335 237 0.0757954702441 6.33964717314
335 244 0.0711647926553 3.10014862574
335 279 0.0754727661942 5.68574050157
335 295 0.0840776776639 3.85399044119
335 305 0.0746854355222 2.95587573575
335 321 0.0640497775949 4.76620641071
335 337 0.0890181799445 1.86945996108
335 347 0.0751775591084 2.09011977709
335 351 0.0753410621803 5.03367499537
335 384 0.084254259953 5.03367499537
335 387 0.0784598996618 5.9117514715
335 406 0.0847766729364 5.68574050157
335 425 0.0660955132505 3.85399044119
335 435 0.0716752461274 3.10014862574
335 456 0.0899459126877 1.61899981765
335 457 0.0889206055183 1.32190781564
335 464 0.0751467395354 1.32190781564
335 472 0.0830591187424 3.10014862574
335 486 0.0713906154558 2.2896114996
335 503 0.067632117324 3.96572344691
335 544 0.0766766955317 6.27035933128
335 575 0.0867971948386 4.57922299921
335 579 0.0681579952795 2.64381563127
335 589 0.0756165979959 2.2896114996
335 591 0.0794887569695 3.49743933632
335 592 0.082601428072 5.9117514715
335 606 0.0789045535184 2.09011977709
335 613 0.0804833302441 2.80418994162
335 624 0.0741495851072 3.85399044119
335 638 0.100048411529 5.3696149308
335 647 0.0784704657257 6.20029725149
335 648 0.0761469301397 5.98519219385
335 678 0.07621608552 5.45036555119
335 696 0.0926630267595 4.07439352467
335 709 0.0912123592808 3.85399044119
335 725 0.0741612134471 3.37021687355
335 746 0.0879714052798 4.3842722319
335 859 0.0843333286539 3.73891992216
335 865 0.0739420502735 4.28347089017
335 903 0.0843630797141 6.27035933128
335 950 0.0805433139285 6.0577426269
335 961 0.0884299689539 5.52993714052
335 1125 0.0852414657769 5.68574050157
338 3 0.0665420767964 5.45036555119
338 84 0.0836745645635 5.3696149308
338 103 0.0781958573375 3.37021687355
338 111 0.0818562689373 4.28347089017
338 184 0.0846953285786 5.52993714052
338 187 0.0769770967062 3.49743933632
338 201 0.0656301019797 5.76206258103
338 207 0.0682873259109 1.32190781564
338 215 0.0764607735974 2.09011977709
338 243 0.0724878649035 4.07439352467
338 249 0.0815333710275 6.0577426269
338 253 0.0874726152638 3.96572344691
338 294 0.0661457706561 5.98519219385
338 306 0.0663430990587 3.96572344691
338 354 0.0789176384369 5.03367499537
338 355 0.0640806726854 4.18023955419
338 365 0.0694512000107 4.6736499027
338 384 0.0790237203621 4.76620641071
338 424 0.0797993730879 5.3696149308
338 438 0.0799357833123 3.10014862574
338 439 0.0676139295961 2.95587573575
338 455 0.0833268077296 4.85699945296
338 462 0.0724083192855 5.68574050157
338 464 0.0812198794429 3.85399044119
338 474 0.0761988063136 3.96572344691
338 487 0.0917500699339 2.2896114996
338 496 0.0818778419228 2.95587573575
338 504 0.0801664374787 3.96572344691
338 505 0.0791511697055 3.85399044119
338 520 0.0916446928339 5.98519219385
338 582 0.0890302640702 2.64381563127
338 624 0.0714303353509 3.49743933632
338 728 0.0943259010452 3.37021687355
338 811 0.0686753436819 6.0577426269
338 839 0.0776949134656 5.60837988324
338 874 0.0916348239108 5.60837988324
338 962 0.0993153732839 6.12943438421
338 994 0.0733707511639 4.6736499027
338 1012 0.0965065107862 5.3696149308
338 1117 0.0705353975829 5.76206258103
338 1118 0.0873159628959 5.68574050157
342 14 0.0709502172114 5.45036555119
342 20 0.072335236804 5.03367499537
342 95 0.0865617745194 4.57922299921
342 97 0.0731882601555 3.49743933632
342 103 0.0908325318659 3.49743933632
342 114 0.0812682651388 5.03367499537
342 126 0.0885647046742 2.80418994162
342 135 0.0693683992894 3.37021687355
342 150 0.0753461078145 5.9117514715
342 172 0.0835116601656 4.85699945296
342 173 0.0860094463203 4.76620641071
342 182 0.0819034345789 3.96572344691
342 186 0.0839412762638 4.76620641071
342 244 0.0897324880579 4.28347089017
342 245 0.0716511191107 5.11972695518
342 247 0.090864330415 3.10014862574
342 254 0.0843407267496 3.96572344691
342 282 0.0902761897674 5.9117514715
342 302 0.0881780987845 3.85399044119
342 340 0.0778268415706 1.86945996108
342 349 0.068883082199 3.85399044119
342 351 0.0751662637113 2.09011977709
342 352 0.0862502746345 1.32190781564
342 374 0.0735410043201 3.37021687355
342 377 0.0755331547978 5.45036555119
342 382 0.084213914734 4.6736499027
342 383 0.0669882202118 5.28763126254
342 458 0.0934111216186 4.28347089017
342 465 0.093455844184 3.10014862574
342 489 0.0903535211713 2.2896114996
342 508 0.071902736784 3.85399044119
342 511 0.0775468226577 4.76620641071
342 515 0.0836977619563 4.85699945296
342 594 0.0926159649153 2.2896114996
342 595 0.0802519323562 2.09011977709
342 606 0.0826775196225 3.37021687355
342 615 0.072829597455 4.28347089017
342 641 0.087720840494 5.60837988324
342 642 0.0771677272368 6.27035933128
342 646 0.0774291176522 5.03367499537
342 693 0.0855311904671 4.76620641071
342 696 0.0707613150972 5.03367499537
342 697 0.0881334562542 5.45036555119
342 715 0.0794576259981 3.49743933632
342 730 0.0833431439913 6.33964717314
342 747 0.08664053043 3.49743933632
342 761 0.0740012731073 5.45036555119
342 775 0.0739723849998 5.45036555119
342 784 0.0812301039969 6.33964717314
342 834 0.0877106390091 5.45036555119
342 845 0.0756602359316 4.57922299921
342 861 0.0709654342198 6.0577426269
342 897 0.0633141835571 5.3696149308
342 906 0.0703529307549 6.0577426269
342 999 0.0673554549331 4.76620641071
342 1005 0.0761685899671 5.52993714052
342 1006 0.0849407136778 5.11972695518
348 37 0.071220539091 6.33964717314
348 38 0.0687987810306 5.52993714052
348 79 0.0816486975461 4.57922299921
348 93 0.0837725716211 4.57922299921
348 123 0.0778990572171 2.2896114996
348 202 0.0747971062869 5.11972695518
348 332 0.0777288486984 5.68574050157
348 438 0.0809675409478 3.96572344691
348 449 0.0779610929209 3.10014862574
348 455 0.0890074181517 5.11972695518
348 485 0.0879372124063 3.10014862574
348 490 0.0911789991227 5.98519219385
348 494 0.075797346755 2.80418994162
348 495 0.0781736225509 2.2896114996
348 605 0.0825332119991 4.18023955419
348 606 0.0653565559795 3.37021687355
348 614 0.0726585805931 3.49743933632
348 623 0.0880088631492 3.2379996353
348 640 0.0831199651209 5.03367499537
348 649 0.0791421968157 5.76206258103
348 705 0.0660606565564 6.12943438421
348 734 0.0747420972709 4.6736499027
348 738 0.0821589225406 2.80418994162
348 840 0.0768309629833 5.45036555119
348 867 0.096108983879 4.6736499027
348 964 0.0752143315253 6.0577426269
348 965 0.08583954395 5.98519219385
348 1028 0.0797925801781 6.12943438421
348 1127 0.079176542764 5.68574050157
348 1148 0.0837851550099 5.68574050157
349 28 0.0859933217777 3.49743933632
349 31 0.0894206833757 5.52993714052
349 32 0.0688114158281 6.33964717314
349 41 0.0700501036521 4.07439352467
349 72 0.0837832619746 5.11972695518
349 99 0.087706949345 3.85399044119
349 107 0.092039319634 2.80418994162
349 117 0.0853152667327 3.37021687355
349 169 0.0728903446682 5.68574050157
349 233 0.0727600905615 5.68574050157
349 249 0.0908004477549 5.11972695518
349 254 0.0833987798643 4.07439352467
349 342 0.0726291664533 3.85399044119
349 343 0.0758101880395 4.76620641071
349 344 0.0943419711731 5.68574050157
349 360 0.088084487983 1.32190781564
349 364 0.0752080682708 4.76620641071
349 381 0.0773265324938 6.27035933128
349 441 0.0783307710787 3.96572344691
349 442 0.0898416175558 4.28347089017
349 444 0.0758833881485 5.3696149308
349 454 0.0730248153562 4.76620641071
349 514 0.0684765174527 4.28347089017
349 523 0.0911814119913 6.0577426269
349 551 0.0919078646152 5.9117514715
349 596 0.0698183650926 5.3696149308
349 610 0.0817498383823 3.37021687355
349 637 0.0824057027742 5.03367499537
349 646 0.0938783209498 5.60837988324
349 714 0.0857609856014 5.45036555119
349 755 0.0875529634971 3.85399044119
349 825 0.0765905146417 6.27035933128
349 845 0.0807574852101 5.03367499537
349 846 0.0831101561743 5.45036555119
349 889 0.0813929900582 5.60837988324
349 996 0.0850801396822 5.11972695518
349 1023 0.0865398717171 5.3696149308
349 1141 0.0821304735077 6.27035933128
351 4 0.0652333999515 5.52993714052
351 32 0.0889117111609 4.76620641071
351 47 0.0878125912832 3.85399044119
351 72 0.0896329423602 5.11972695518
351 118 0.082098297759 2.64381563127
351 140 0.087107897375 3.49743933632
351 150 0.0781898577039 5.3696149308
351 179 0.0932416745409 5.11972695518
351 184 0.0806653457535 5.52993714052
351 199 0.0727616837064 2.95587573575
351 249 0.0669733764194 3.49743933632
351 254 0.0690088530295 3.10014862574
351 265 0.0840064840712 4.85699945296
351 339 0.0820192759737 1.32190781564
351 351 0.0713367282357 0.0
351 357 0.0622734642758 5.60837988324
351 370 0.0810705586518 1.86945996108
351 422 0.0687422807726 5.98519219385
351 430 0.0773875218805 4.85699945296
351 491 0.0727404490451 3.10014862574
351 507 0.078513113962 3.10014862574
351 576 0.0874134832839 4.57922299921
351 583 0.0905268328557 3.49743933632
351 584 0.0824829436585 3.37021687355
351 602 0.0747903782938 2.2896114996
351 606 0.0772568432153 5.11972695518
351 647 0.0749834063796 5.03367499537
351 703 0.0787993957408 4.6736499027
351 744 0.0796790361142 6.27035933128
351 747 0.0740426280496 3.10014862574
351 758 0.0817082028346 4.3842722319
351 768 0.0843183370536 5.45036555119
351 834 0.0823442160713 5.3696149308
351 897 0.0804155861465 4.76620641071
351 1040 0.0771161462024 5.98519219385
351 1041 0.0773855822508 6.0577426269
351 1150 0.0861611544636 5.68574050157
351 1151 0.085003552133 5.76206258103
351 1167 0.0832077355823 6.27035933128
353 23 0.0759656239836 3.37021687355
353 27 0.0670550866687 5.03367499537
353 39 0.0666887750745 3.37021687355
353 43 0.0771209191288 3.10014862574
353 46 0.0804399414332 3.49743933632
353 85 0.0776805139827 4.57922299921
353 101 0.0809890691874 2.80418994162
353 127 0.0846388134936 2.09011977709
353 136 0.0768947715623 2.80418994162
353 144 0.0799429152104 4.3842722319
353 189 0.0780872764093 4.76620641071
353 199 0.0932012114517 3.49743933632
353 208 0.078804030084 3.49743933632
353 214 0.0799206802761 3.49743933632
353 232 0.0896416981518 1.32190781564
353 247 0.0873731964705 2.2896114996
353 251 0.0694862023705 3.49743933632
353 269 0.101087225891 5.68574050157
353 314 0.0824189733634 3.73891992216
353 316 0.0857395298388 4.18023955419
353 334 0.0677118339277 2.64381563127
353 363 0.0900890628713 0.934729980539
353 384 0.0800472757338 5.45036555119
353 385 0.0586207216882 3.85399044119
353 425 0.0758576555055 6.33964717314
353 446 0.0720004061712 4.28347089017
353 451 0.0667302430353 4.07439352467
353 469 0.0705623094606 3.10014862574
353 482 0.080475070268 0.934729980539
353 486 0.0846768386555 3.85399044119
353 525 0.0823367245198 5.11972695518
353 569 0.0809753348394 5.76206258103
353 587 0.0908765431938 3.85399044119
353 602 0.0781078559605 2.2896114996
353 612 0.0771223328431 2.09011977709
353 613 0.0914314092894 2.64381563127
353 619 0.0785685115739 2.09011977709
353 620 0.0953100178366 2.2896114996
353 638 0.0810782592407 3.49743933632
353 713 0.08359286815 4.07439352467
353 718 0.0671684382446 5.45036555119
353 743 0.0701947476972 3.96572344691
353 771 0.0829548584733 6.12943438421
353 844 0.0698953864947 5.45036555119
353 864 0.0746317136971 3.85399044119
353 873 0.0803223656905 3.85399044119
353 982 0.0759326362553 5.76206258103
353 1005 0.0840563600998 5.45036555119
353 1006 0.0775656512871 5.03367499537
353 1035 0.06911581677 5.52993714052
353 1043 0.0695744337381 6.0577426269
353 1044 0.0816234880785 6.27035933128
353 1144 0.083376728364 5.9117514715
353 1161 0.0794234504325 5.9117514715
357 13 0.0896486390488 4.76620641071
357 15 0.0906331616199 6.12943438421
357 29 0.0780747969135 5.52993714052
357 34 0.0851004607237 2.95587573575
357 90 0.084770523548 5.76206258103
357 120 0.0836643607968 2.64381563127
357 141 0.0988850182288 5.03367499537
357 185 0.0853981407879 5.11972695518
357 191 0.0772842801787 6.0577426269
357 202 0.0673925323037 4.07439352467
357 203 0.0679355266001 3.49743933632
357 213 0.0855342806965 2.80418994162
357 221 0.0964996038415 3.96572344691
357 233 0.0818668240784 2.09011977709
357 248 0.0854954413508 4.28347089017
357 266 0.0870982368813 6.0577426269
357 318 0.0732003969161 3.73891992216
357 329 0.0914021627932 3.37021687355
357 331 0.0903248343382 5.03367499537
357 348 0.0769078603521 2.09011977709
357 362 0.0776694434049 4.76620641071
357 426 0.0758743183995 5.68574050157
357 454 0.0632363198961 4.76620641071
357 460 0.0833680618892 3.49743933632
357 464 0.100631604004 2.80418994162
357 488 0.0697448216942 2.09011977709
357 491 0.0840647394686 3.10014862574
357 513 0.0868071265023 3.10014862574
357 567 0.0710610591053 5.76206258103
357 578 0.0921773837989 4.57922299921
357 589 0.0651073114318 3.37021687355
357 622 0.0832344402522 2.2896114996
357 623 0.0891690313271 2.09011977709
357 639 0.0769741938642 3.85399044119
357 717 0.0831439501039 4.07439352467
357 743 0.0893678185636 2.95587573575
357 761 0.0802658514419 3.37021687355
357 784 0.0765124295799 6.12943438421
357 830 0.0688760218184 6.0577426269
357 843 0.081545751454 5.60837988324
357 848 0.0824427569093 5.03367499537
357 868 0.0786464032164 3.85399044119
357 1011 0.0865844440967 4.76620641071
357 1031 0.0711371340028 5.3696149308
361 15 0.0951832756919 4.76620641071
361 22 0.0796840249069 4.07439352467
361 42 0.076480481338 3.37021687355
361 90 0.0790507571218 4.28347089017
361 94 0.0762920264941 6.27035933128
361 127 0.0730019439861 2.64381563127
361 151 0.0639761377938 5.03367499537
361 201 0.0860018011592 4.28347089017
361 225 0.0772708316662 5.98519219385
361 243 0.0974986802078 4.76620641071
361 246 0.084063422987 1.61899981765
361 249 0.0763867119123 3.10014862574
361 301 0.0834685500634 5.60837988324
361 314 0.084216269354 5.03367499537
361 331 0.0844622027199 2.95587573575
361 342 0.075474907915 2.64381563127
361 350 0.0764831663504 1.32190781564
361 362 0.0926309119946 0.934729980539
361 365 0.0703492605959 3.73891992216
361 370 0.0834746951029 0.934729980539
361 385 0.0697287591466 2.95587573575
361 387 0.0787317719421 3.96572344691
361 391 0.0851122023894 3.85399044119
361 461 0.0788919335679 3.10014862574
361 476 0.0711397706099 5.98519219385
361 507 0.078920128963 2.2896114996
361 508 0.0742358392486 2.80418994162
361 514 0.0689698755733 2.95587573575
361 532 0.0866588024476 6.0577426269
361 575 0.0745628124757 5.11972695518
361 586 0.0824947977818 5.03367499537
361 643 0.0917804889546 3.49743933632
361 766 0.0676623072524 3.85399044119
361 767 0.0817668498619 4.3842722319
361 789 0.0757636866301 5.52993714052
361 835 0.0798019762054 5.98519219385
361 845 0.0809922301033 5.28763126254
361 854 0.0696054596104 4.6736499027
361 905 0.0750221329116 4.6736499027
361 914 0.0825880036733 5.3696149308
361 978 0.0860737393949 5.98519219385
361 1008 0.0892087744673 5.11972695518
361 1119 0.07847298229 6.27035933128
363 34 0.0806270748661 5.03367499537
363 38 0.0881057765188 3.10014862574
363 49 0.0807492596156 3.49743933632
363 102 0.0774780948624 3.85399044119
363 104 0.0815073097698 5.03367499537
363 110 0.0836603039782 2.80418994162
363 112 0.0901825881539 3.85399044119
363 147 0.06019760557 3.49743933632
363 189 0.0782944044241 5.52993714052
363 218 0.0902229087229 3.49743933632
363 219 0.0862035189783 2.80418994162
363 235 0.0931094349841 3.96572344691
363 246 0.0554218852226 3.10014862574
363 248 0.0689590740598 1.32190781564
363 263 0.0870066894666 3.49743933632
363 325 0.0870694972377 4.18023955419
363 328 0.0909796150698 5.98519219385
363 333 0.0852640220721 2.95587573575
363 344 0.080274272378 2.64381563127
363 345 0.0746919488082 3.37021687355
363 353 0.0812206011112 0.934729980539
363 360 0.0835889222463 2.80418994162
363 370 0.0873065316681 2.09011977709
363 374 0.0846135649083 2.09011977709
363 377 0.08556762866 4.76620641071
363 381 0.0813174876663 2.64381563127
363 389 0.083166396889 3.96572344691
363 390 0.0734861673338 4.6736499027
363 472 0.0814974450714 2.09011977709
363 476 0.0916519135057 4.28347089017
363 485 0.0731926724436 3.10014862574
363 494 0.0793995497898 3.85399044119
363 498 0.0850396334692 1.61899981765
363 506 0.0810426813358 2.80418994162
363 512 0.0862537389327 4.28347089017
363 518 0.0777542169342 3.49743933632
363 524 0.0915404105396 3.96572344691
363 532 0.0827117961986 5.11972695518
363 615 0.0556111219777 4.28347089017
363 622 0.0822810910735 3.37021687355
363 638 0.0873769224304 2.80418994162
363 642 0.0670829195232 5.3696149308
363 654 0.0851835724764 4.18023955419
363 707 0.0774529350756 6.12943438421
363 724 0.0832392222466 3.96572344691
363 729 0.0723884436042 6.12943438421
363 731 0.0776307942635 3.49743933632
363 732 0.0789829117896 3.37021687355
363 733 0.0765524259795 3.49743933632
363 779 0.0832603877823 5.45036555119
363 846 0.0730742093054 5.3696149308
363 859 0.0852099448892 5.45036555119
363 864 0.0845399262704 4.18023955419
363 867 0.0867742078211 5.03367499537
363 904 0.0811442109911 5.45036555119
363 917 0.0707219253922 5.60837988324
363 922 0.0803191150353 5.98519219385
363 998 0.0862144741343 5.03367499537
363 1008 0.0606796456793 4.76620641071
363 1009 0.0726388283355 4.85699945296
363 1025 0.0845613874769 4.76620641071
363 1044 0.0832495926557 5.76206258103
363 1169 0.0794228664091 5.9117514715
371 25 0.0823419557916 5.45036555119
371 121 0.0845890087764 4.57922299921
371 134 0.0833356075554 1.86945996108
371 139 0.0734861986421 5.03367499537
371 143 0.0803153165886 3.49743933632
371 145 0.0883375488257 2.64381563127
371 201 0.0840476798404 4.85699945296
371 210 0.0843706765359 3.85399044119
371 215 0.0972560122946 6.0577426269
371 223 0.0676463832187 4.07439352467
371 247 0.0721436517932 0.934729980539
371 248 0.0724854988998 1.32190781564
371 252 0.0885129951946 4.76620641071
371 257 0.0914275514997 3.10014862574
371 311 0.0734669884149 5.9117514715
371 321 0.0869046329556 4.76620641071
371 325 0.0776233857503 5.45036555119
371 335 0.0890880893574 5.28763126254
371 360 0.0845483531095 2.09011977709
371 364 0.0876567450299 2.09011977709
371 368 0.0908272063532 5.68574050157
371 375 0.0807070307027 3.73891992216
371 396 0.0871288126578 3.73891992216
371 456 0.0785118132435 5.52993714052
371 463 0.088609329047 4.28347089017
371 471 0.0768280150394 2.95587573575
371 472 0.0838824917871 3.10014862574
371 483 0.0826996084605 2.80418994162
371 498 0.0843373021719 0.934729980539
371 507 0.0752201289927 1.32190781564
371 511 0.0883424429821 3.96572344691
371 518 0.0754083584265 3.49743933632
371 522 0.0707917591771 2.95587573575
371 593 0.0838892352122 4.28347089017
371 630 0.0728994689296 3.37021687355
371 633 0.0893395776301 5.9117514715
371 635 0.0832277555978 2.2896114996
371 636 0.0906955815975 2.09011977709
371 637 0.0933710358609 2.2896114996
371 651 0.0853790008394 6.20029725149
371 721 0.0684380938729 5.03367499537
371 722 0.066495306491 4.76620641071
371 777 0.0760365631636 4.3842722319
371 782 0.0832111003374 3.96572344691
371 854 0.0828401471752 5.3696149308
371 857 0.0814203014439 5.60837988324
371 873 0.0851967497391 4.57922299921
371 875 0.0757240788018 5.60837988324
371 893 0.0873331431933 5.98519219385
371 908 0.0769373487266 4.57922299921
371 996 0.0692902009765 5.52993714052
371 1011 0.0801789648714 6.27035933128
371 1035 0.0663849182767 5.11972695518
371 1036 0.0756804166883 5.52993714052
371 1139 0.0878452597042 6.20029725149
371 1140 0.085976760663 5.98519219385
371 1182 0.0834955327163 6.33964717314
374 16 0.0837208151006 5.76206258103
374 31 0.0781392282734 4.07439352467
374 86 0.074166751276 5.98519219385
374 99 0.0641643473809 5.03367499537
374 118 0.0820086891887 3.2379996353
374 121 0.0765654230923 2.80418994162
374 139 0.0762401276496 2.64381563127
374 140 0.0781870815377 3.49743933632
374 195 0.083956084013 5.76206258103
374 200 0.0752461913522 5.52993714052
374 206 0.075223682871 5.52993714052
374 256 0.0822642646265 1.61899981765
374 317 0.0790657114654 5.68574050157
374 340 0.0797888738426 4.6736499027
374 345 0.0857779559473 2.95587573575
374 352 0.0806802104623 3.37021687355
374 373 0.0847250273976 0.934729980539
374 398 0.0793474872582 3.85399044119
374 468 0.0838896113653 5.3696149308
374 484 0.0847830817566 2.09011977709
374 486 0.0908687005345 2.80418994162
374 492 0.0817034066448 1.32190781564
374 506 0.0821076214629 3.96572344691
374 507 0.0810808937136 3.10014862574
374 513 0.0822482538408 3.10014862574
374 531 0.0677869324487 3.96572344691
374 532 0.0725963210928 3.85399044119
374 633 0.0812951227848 3.37021687355
374 638 0.0880612136766 2.2896114996
374 655 0.0758251327424 3.49743933632
374 723 0.0776938382111 5.45036555119
374 764 0.0729600166533 4.76620641071
374 765 0.0851272556846 4.07439352467
374 781 0.090147035659 5.45036555119
374 790 0.0681358453768 5.03367499537
374 870 0.0793615775339 5.98519219385
374 882 0.0881482361954 3.85399044119
374 897 0.0787924614459 4.76620641071
374 899 0.0831778395582 3.96572344691
374 901 0.079391178998 3.96572344691
374 1014 0.0748998578079 6.27035933128
374 1017 0.0819621874108 4.85699945296
374 1035 0.0692840143304 4.85699945296
374 1044 0.0737401048973 5.03367499537
374 1161 0.081244689463 5.9117514715
374 1174 0.0953834917134 6.33964717314
374 1184 0.0877765078198 6.27035933128
379 42 0.084949498906 3.37021687355
379 46 0.0889468559934 3.10014862574
379 102 0.0827161709986 5.3696149308
379 126 0.0677535358775 2.80418994162
379 128 0.0745289129646 2.80418994162
379 138 0.0827827938953 3.49743933632
379 148 0.0808242029593 2.80418994162
379 201 0.0824705386253 5.68574050157
379 208 0.0752462638735 5.52993714052
379 221 0.0855036339923 3.85399044119
379 230 0.0921795885094 3.10014862574
379 233 0.0806444478435 3.49743933632
379 244 0.0747015528792 4.28347089017
379 258 0.0753131954687 2.95587573575
379 321 0.0991292380637 5.9117514715
379 324 0.0880079775194 5.68574050157
379 332 0.0911084776984 4.6736499027
379 339 0.0927426093715 4.6736499027
379 344 0.0771228038716 4.18023955419
379 352 0.0768049550419 2.95587573575
379 375 0.0760147009562 2.95587573575
379 382 0.0593397349686 2.80418994162
379 394 0.0692538957271 2.64381563127
379 465 0.0772126479907 5.52993714052
379 471 0.0893113101866 3.96572344691
379 473 0.0814666203126 3.96572344691
379 498 0.078251224786 1.61899981765
379 505 0.0714688766856 5.76206258103
379 506 0.0827063472327 2.09011977709
379 518 0.0714260124361 2.2896114996
379 519 0.0823139019513 3.10014862574
379 525 0.0853992444129 2.80418994162
379 595 0.0764590862147 5.03367499537
379 615 0.0700897071575 5.03367499537
379 753 0.0917549845685 5.76206258103
379 755 0.0792965338234 3.49743933632
379 760 0.0779949316745 4.07439352467
379 906 0.0759357742428 3.96572344691
379 910 0.0885255875871 4.76620641071
379 1143 0.076223170283 6.33964717314
379 1186 0.071040618261 6.33964717314
386 40 0.0808598476823 5.45036555119
386 144 0.0797676162553 3.49743933632
386 145 0.0748586632799 2.09011977709
386 149 0.0755962141271 2.2896114996
386 229 0.0709861956269 4.28347089017
386 256 0.0958248063185 1.61899981765
386 260 0.0643052374818 1.32190781564
386 261 0.0696613034301 0.934729980539
386 262 0.0725217223693 1.32190781564
386 263 0.0785576532427 2.09011977709
386 354 0.0791527526017 3.85399044119
386 364 0.0819923096976 2.95587573575
386 374 0.0818315217156 2.64381563127
386 385 0.0774372451317 0.934729980539
386 386 0.076009997671 0.0
386 399 0.0786851647681 2.64381563127
386 473 0.0828102248515 4.85699945296
386 492 0.0903929040166 3.49743933632
386 503 0.0804974983887 4.28347089017
386 516 0.0792171448251 0.934729980539
386 525 0.081105795642 2.2896114996
386 529 0.0761414498369 2.2896114996
386 596 0.0876818971979 5.98519219385
386 646 0.0922709298612 1.86945996108
386 725 0.0805932774126 6.33964717314
386 749 0.0778038772685 4.07439352467
386 769 0.0722289732498 4.07439352467
386 908 0.0733441975157 3.85399044119
386 924 0.0773077646395 4.57922299921
386 1007 0.0723430460141 6.0577426269
386 1015 0.0819853001638 5.52993714052
386 1019 0.0836045933131 6.12943438421
386 1057 0.0814748741685 5.03367499537
386 1163 0.0792747130272 6.20029725149
389 48 0.0774788655839 3.85399044119
389 110 0.0801775132758 5.3696149308
389 120 0.0705619022792 4.28347089017
389 121 0.0858799143503 4.18023955419
389 131 0.0796072628548 3.49743933632
389 136 0.084508898928 3.2379996353
389 141 0.0758607778831 3.49743933632
389 146 0.0908891126989 3.37021687355
389 149 0.0714133736148 4.28347089017
389 239 0.0969865050664 4.76620641071
389 240 0.0811658979914 4.07439352467
389 242 0.0755166174993 3.10014862574
389 245 0.0748821305525 3.49743933632
389 251 0.0761844802772 2.09011977709
389 255 0.078679656234 3.10014862574
389 341 0.0856862257839 5.98519219385
389 348 0.0769181565906 5.45036555119
389 357 0.0640897987314 3.85399044119
389 359 0.0733244512394 4.6736499027
389 363 0.0769145739461 3.96572344691
389 368 0.0770592456226 3.37021687355
389 398 0.0669859149587 2.64381563127
389 477 0.0799444061695 5.11972695518
389 480 0.082174174819 6.0577426269
389 502 0.094096442998 2.09011977709
389 504 0.0858707594271 2.80418994162
389 510 0.0857474700454 1.61899981765
389 511 0.0867367981064 1.32190781564
389 519 0.0828796864174 0.934729980539
389 521 0.0771262950856 4.85699945296
389 523 0.0755265074578 3.10014862574
389 524 0.0828456297826 2.2896114996
389 653 0.0796759803576 4.28347089017
389 664 0.0842761491521 2.64381563127
389 741 0.0936626967653 5.03367499537
389 780 0.0672164348326 3.37021687355
389 783 0.0807794127377 4.07439352467
389 786 0.0698240649286 2.95587573575
389 869 0.0794472430046 6.27035933128
389 901 0.0905801613082 3.85399044119
389 919 0.0622706883803 3.96572344691
389 1045 0.0821045743342 4.6736499027
389 1163 0.0626698281299 5.98519219385
389 1164 0.0833516064691 5.9117514715
389 1189 0.081746411926 5.98519219385
396 49 0.062765350882 5.45036555119
396 50 0.0751971922824 4.07439352467
396 139 0.0983227257949 6.27035933128
396 232 0.0628688081447 5.98519219385
396 262 0.0915645608155 2.80418994162
396 372 0.0856036868953 3.85399044119
396 392 0.0787307213751 1.32190781564
396 482 0.0819794842707 5.76206258103
396 636 0.0825255447741 3.37021687355
396 656 0.0780618708267 3.49743933632
396 767 0.0722247016907 4.3842722319
396 791 0.0783518175257 3.37021687355
396 792 0.0861990663006 3.96572344691
396 899 0.0866322315981 5.03367499537
396 901 0.075749851379 5.98519219385
396 909 0.0815275343425 5.03367499537
396 920 0.0912407627384 3.85399044119
396 1032 0.0816415084634 5.52993714052
396 1045 0.0864944810334 6.27035933128
396 1053 0.088400379781 6.0577426269
396 1167 0.0852013811754 6.33964717314
396 1189 0.0846374662456 6.27035933128
397 37 0.0815289917398 6.27035933128
397 42 0.0746597462432 5.45036555119
397 129 0.0905999978417 5.3696149308
397 240 0.0808563382054 4.76620641071
397 241 0.0785451069227 4.85699945296
397 243 0.076552224334 5.52993714052
397 255 0.0811879532713 2.95587573575
397 387 0.0799385663349 2.09011977709
397 393 0.0753195811567 1.32190781564
397 499 0.0831523779015 3.85399044119
397 508 0.0830019370596 2.95587573575
397 517 0.0788897066778 2.2896114996
397 520 0.072805416804 4.28347089017
397 531 0.0777266734234 1.32190781564
397 611 0.0849354599562 5.9117514715
397 643 0.0879689782574 3.85399044119
397 647 0.073001560475 2.80418994162
397 648 0.0860080266313 3.2379996353
397 649 0.0860428949274 3.85399044119
397 890 0.0839064607978 5.3696149308
397 897 0.0708560217928 4.76620641071
397 907 0.0672465708137 4.18023955419
397 915 0.0839056237983 3.85399044119
397 1051 0.0753535178285 4.85699945296
397 1181 0.0739226703866 5.76206258103
397 1188 0.0928545622246 5.68574050157
401 65 0.075365826073 3.37021687355
401 73 0.0778099137344 3.96572344691
401 76 0.0874449371009 4.85699945296
401 157 0.0837170332884 3.37021687355
401 158 0.0869258286358 4.18023955419
401 176 0.0903367314595 5.3696149308
401 182 0.0812166398405 3.49743933632
401 297 0.0796506922762 5.98519219385
401 300 0.0906797480114 3.10014862574
401 401 0.0786081063505 0.0
401 402 0.0828844227879 0.934729980539
401 421 0.069925287791 2.09011977709
401 433 0.0912700958778 3.37021687355
401 538 0.0883754244024 3.85399044119
401 543 0.0673706940977 1.32190781564
401 545 0.106740894819 2.2896114996
401 562 0.0765082930522 3.49743933632
401 669 0.074098285439 4.18023955419
401 684 0.0721585184449 3.2379996353
401 723 0.0773527514536 5.98519219385
401 806 0.0832080645483 3.49743933632
401 926 0.0840251900322 3.85399044119
401 948 0.0906076832129 4.57922299921
401 977 0.0797424569247 6.0577426269
401 1081 0.0911118294901 5.03367499537
401 1093 0.0748197888361 5.76206258103
401 1218 0.0716258022887 6.33964717314
421 4 0.074473944733 3.85399044119
421 5 0.0791470443407 3.96572344691
421 13 0.0745091519805 5.60837988324
421 69 0.0790086880222 3.96572344691
421 152 0.0872960706726 3.85399044119
421 159 0.0753216329643 4.57922299921
421 164 0.077501956813 2.2896114996
421 169 0.0749941777012 3.37021687355
421 179 0.086009908321 3.49743933632
421 199 0.0834716220354 3.49743933632
421 212 0.0848967374998 4.57922299921
421 286 0.0691242415391 3.10014862574
421 295 0.0816716975834 2.95587573575
