14.0 51.0
14.0 88.0
14.0 125.0
14.0 168.0
14.0 213.0
14.0 256.0
14.0 298.0
14.0 340.0
26.0 6.0
26.0 10.0
26.0 14.0
26.0 17.0
26.0 21.0
26.0 24.0
26.0 28.0
26.0 32.0
26.0 36.0
26.0 40.0
26.0 43.0
26.0 47.0
26.0 51.0
26.0 54.0
26.0 58.0
26.0 62.0
26.0 66.0
26.0 70.0
26.0 73.0
26.0 77.0
26.0 81.0
26.0 84.0
26.0 88.0
26.0 92.0
26.0 96.0
26.0 100.0
26.0 103.0
26.0 107.0
26.0 111.0
26.0 114.0
26.0 118.0
26.0 122.0
26.0 126.0
26.0 130.0
26.0 134.0
26.0 138.0
26.0 142.0
26.0 146.0
26.0 150.0
26.0 154.0
26.0 158.0
26.0 162.0
26.0 166.0
26.0 170.0
26.0 174.0
26.0 178.0
26.0 182.0
26.0 186.0
26.0 190.0
26.0 194.0
26.0 198.0
26.0 202.0
26.0 206.0
26.0 210.0
26.0 214.0
26.0 218.0
26.0 222.0
26.0 226.0
26.0 230.0
26.0 234.0
26.0 238.0
26.0 242.0
26.0 246.0
26.0 250.0
26.0 254.0
26.0 258.0
26.0 262.0
26.0 266.0
26.0 270.0
26.0 274.0
26.0 278.0
26.0 282.0
26.0 286.0
26.0 290.0
26.0 294.0
26.0 298.0
26.0 302.0
26.0 306.0
26.0 310.0
26.0 314.0
26.0 318.0
26.0 322.0
26.0 326.0
26.0 330.0
26.0 334.0
26.0 338.0
26.0 342.0
26.0 346.0
26.0 350.0
26.0 354.0
26.0 358.0
26.0 362.0
26.0 367.0
26.0 371.0
26.0 377.0
26.0 382.0
26.0 387.0
26.0 392.0
62.0 52.0
62.0 92.0
62.0 134.0
62.0 179.0
62.0 224.0
62.0 268.0
62.0 315.0
62.0 359.0
87.0 53.0
87.0 94.0
87.0 137.0
87.0 185.0
87.0 237.0
87.0 286.0
87.0 333.0
112.0 45.0
112.0 76.0
112.0 106.0
112.0 139.0
112.0 175.0
112.0 217.0
112.0 259.0
112.0 300.0
112.0 342.0
129.0 46.0
129.0 79.0
129.0 110.0
129.0 145.0
129.0 181.0
129.0 223.0
129.0 265.0
129.0 306.0
129.0 347.0
157.0 56.0
157.0 94.0
157.0 134.0
157.0 177.0
157.0 224.0
157.0 272.0
157.0 317.0
157.0 363.0
159.0 53.0
159.0 91.0
159.0 129.0
159.0 173.0
159.0 217.0
159.0 261.0
159.0 307.0
159.0 352.0
165.0 63.0
165.0 112.0
165.0 165.0
165.0 220.0
165.0 279.0
165.0 339.0
166.0 52.0
166.0 92.0
166.0 134.0
166.0 179.0
166.0 224.0
166.0 268.0
166.0 314.0
166.0 359.0
167.0 56.0
167.0 97.0
167.0 139.0
167.0 183.0
167.0 229.0
167.0 276.0
167.0 320.0
167.0 367.0
185.0 51.0
185.0 87.0
185.0 123.0
185.0 165.0
185.0 207.0
185.0 249.0
185.0 291.0
185.0 329.0
185.0 371.0
217.0 45.0
217.0 77.0
217.0 109.0
217.0 141.0
217.0 175.0
217.0 218.0
217.0 262.0
217.0 305.0
217.0 351.0
224.0 46.0
224.0 76.0
224.0 105.0
224.0 136.0
224.0 169.0
224.0 208.0
224.0 248.0
224.0 288.0
224.0 328.0
224.0 366.0
227.0 46.0
227.0 79.0
227.0 114.0
227.0 153.0
227.0 193.0
227.0 241.0
227.0 289.0
227.0 337.0
232.0 45.0
232.0 74.0
232.0 104.0
232.0 134.0
232.0 165.0
232.0 203.0
232.0 241.0
232.0 281.0
232.0 320.0
232.0 359.0
241.0 46.0
241.0 75.0
241.0 105.0
241.0 135.0
241.0 166.0
241.0 204.0
241.0 245.0
241.0 283.0
241.0 323.0
241.0 362.0
258.0 48.0
258.0 82.0
258.0 114.0
258.0 148.0
258.0 184.0
258.0 228.0
258.0 275.0
258.0 323.0
258.0 367.0
259.0 47.0
259.0 82.0
259.0 117.0
259.0 152.0
259.0 191.0
259.0 237.0
259.0 281.0
259.0 327.0
286.0 53.0
286.0 90.0
286.0 127.0
286.0 169.0
286.0 212.0
286.0 254.0
286.0 296.0
286.0 344.0
296.0 50.0
296.0 85.0
296.0 119.0
296.0 157.0
296.0 195.0
296.0 235.0
296.0 276.0
296.0 318.0
296.0 355.0
303.0 51.0
303.0 83.0
303.0 118.0
303.0 155.0
303.0 192.0
303.0 231.0
303.0 269.0
303.0 307.0
303.0 345.0
303.0 400.0
306.0 55.0
306.0 93.0
306.0 134.0
306.0 178.0
306.0 223.0
306.0 267.0
306.0 313.0
306.0 356.0
328.0 45.0
328.0 79.0
328.0 114.0
328.0 150.0
328.0 186.0
328.0 229.0
328.0 275.0
328.0 323.0
328.0 374.0
334.0 46.0
334.0 77.0
334.0 109.0
334.0 144.0
334.0 179.0
334.0 225.0
334.0 270.0
334.0 313.0
334.0 354.0
347.0 32.0
347.0 52.0
347.0 69.0
347.0 88.0
347.0 106.0
347.0 125.0
347.0 143.0
347.0 162.0
347.0 181.0
347.0 201.0
347.0 222.0
347.0 243.0
347.0 264.0
347.0 285.0
347.0 306.0
347.0 327.0
347.0 348.0
347.0 369.0
347.0 395.0
366.0 47.0
366.0 78.0
366.0 111.0
366.0 143.0
366.0 178.0
366.0 222.0
366.0 267.0
366.0 311.0
366.0 352.0
382.0 48.0
382.0 83.0
382.0 118.0
382.0 157.0
382.0 201.0
382.0 249.0
382.0 297.0
382.0 345.0
428.0 57.0
428.0 96.0
428.0 138.0
428.0 186.0
428.0 236.0
428.0 288.0
428.0 337.0
434.0 53.0
434.0 94.0
434.0 140.0
434.0 189.0
434.0 237.0
434.0 285.0
434.0 328.0
434.0 382.0
435.0 52.0
435.0 87.0
435.0 123.0
435.0 169.0
435.0 212.0
435.0 255.0
435.0 301.0
435.0 345.0
450.0 49.0
450.0 84.0
450.0 117.0
450.0 156.0
450.0 195.0
450.0 235.0
450.0 276.0
450.0 318.0
450.0 360.0
456.0 146.0
477.0 53.0
477.0 92.0
477.0 131.0
477.0 174.0
477.0 219.0
477.0 263.0
477.0 310.0
477.0 354.0
487.0 46.0
487.0 78.0
487.0 109.0
487.0 143.0
487.0 179.0
487.0 224.0
487.0 267.0
487.0 309.0
487.0 351.0
558.0 54.0
558.0 90.0
558.0 128.0
558.0 173.0
558.0 217.0
558.0 263.0
558.0 306.0
558.0 348.0
580.0 55.0
580.0 96.0
580.0 140.0
580.0 187.0
580.0 235.0
580.0 283.0
580.0 331.0
591.0 75.0
591.0 170.0
599.0 33.0
599.0 53.0
599.0 72.0
599.0 92.0
599.0 112.0
599.0 132.0
599.0 152.0
599.0 172.0
599.0 194.0
599.0 216.0
599.0 238.0
599.0 261.0
599.0 284.0
599.0 305.0
599.0 327.0
599.0 348.0
599.0 370.0
599.0 394.0
605.0 45.0
605.0 75.0
605.0 104.0
605.0 133.0
605.0 163.0
605.0 199.0
605.0 239.0
605.0 280.0
605.0 319.0
605.0 359.0
607.0 53.0
607.0 89.0
607.0 124.0
607.0 165.0
607.0 204.0
607.0 247.0
607.0 292.0
607.0 339.0
623.0 47.0
623.0 79.0
623.0 111.0
623.0 145.0
623.0 181.0
623.0 225.0
623.0 272.0
623.0 320.0
623.0 364.0
632.0 46.0
632.0 77.0
632.0 106.0
632.0 137.0
632.0 168.0
632.0 206.0
632.0 247.0
632.0 289.0
632.0 326.0
632.0 364.0
680.0 9.0
680.0 15.0
680.0 21.0
680.0 27.0
680.0 33.0
680.0 39.0
680.0 45.0
680.0 51.0
680.0 57.0
680.0 63.0
680.0 69.0
680.0 75.0
680.0 81.0
680.0 87.0
680.0 93.0
680.0 99.0
680.0 105.0
680.0 111.0
680.0 117.0
680.0 123.0
680.0 129.0
680.0 135.0
680.0 141.0
680.0 147.0
680.0 153.0
680.0 159.0
680.0 165.0
680.0 171.0
680.0 177.0
680.0 183.0
680.0 189.0
680.0 195.0
680.0 201.0
680.0 207.0
680.0 213.0
680.0 219.0
680.0 225.0
680.0 231.0
680.0 237.0
680.0 243.0
680.0 249.0
680.0 255.0
680.0 261.0
680.0 267.0
680.0 273.0
680.0 279.0
680.0 285.0
680.0 291.0
680.0 297.0
680.0 303.0
680.0 309.0
680.0 315.0
680.0 321.0
680.0 327.0
680.0 333.0
680.0 339.0
680.0 345.0
680.0 351.0
680.0 357.0
680.0 363.0
680.0 369.0
680.0 375.0
680.0 381.0
680.0 387.0
680.0 393.0
696.0 42.0
696.0 73.0
696.0 109.0
696.0 150.0
696.0 192.0
696.0 234.0
696.0 276.0
696.0 312.0
696.0 340.0
696.0 368.0
708.0 50.0
708.0 87.0
708.0 124.0
708.0 165.0
708.0 216.0
708.0 269.0
708.0 320.0
709.0 55.0
709.0 91.0
709.0 132.0
709.0 176.0
709.0 222.0
709.0 265.0
709.0 308.0
709.0 349.0
714.0 70.0
714.0 318.0
714.0 362.0
718.0 51.0
718.0 87.0
718.0 124.0
718.0 164.0
718.0 206.0
718.0 248.0
718.0 289.0
718.0 328.0
718.0 368.0
725.0 51.0
725.0 96.0
725.0 312.0
725.0 350.0
725.0 387.0
734.0 42.0
734.0 70.0
734.0 98.0
734.0 136.0
734.0 174.0
734.0 216.0
734.0 258.0
734.0 295.0
734.0 323.0
734.0 350.0
734.0 375.0
735.0 50.0
735.0 95.0
735.0 157.0
735.0 305.0
735.0 347.0
735.0 387.0
736.0 71.0
736.0 129.0
736.0 364.0
738.0 95.0
738.0 316.0
738.0 359.0
744.0 42.0
744.0 71.0
744.0 107.0
744.0 149.0
744.0 193.0
744.0 240.0
744.0 284.0
744.0 316.0
744.0 344.0
744.0 370.0
745.0 47.0
745.0 80.0
745.0 111.0
745.0 145.0
745.0 181.0
745.0 224.0
745.0 268.0
745.0 313.0
745.0 356.0
763.0 7.0
763.0 13.0
763.0 18.0
763.0 23.0
763.0 28.0
763.0 33.0
763.0 38.0
763.0 43.0
763.0 48.0
763.0 53.0
763.0 58.0
763.0 63.0
763.0 68.0
763.0 73.0
763.0 78.0
763.0 83.0
763.0 88.0
763.0 93.0
763.0 98.0
763.0 103.0
763.0 108.0
763.0 113.0
763.0 118.0
763.0 123.0
763.0 128.0
763.0 133.0
763.0 138.0
763.0 143.0
763.0 148.0
763.0 153.0
763.0 158.0
763.0 163.0
763.0 168.0
763.0 173.0
763.0 179.0
763.0 185.0
763.0 191.0
763.0 197.0
763.0 203.0
763.0 209.0
763.0 215.0
763.0 221.0
763.0 227.0
763.0 233.0
763.0 239.0
763.0 245.0
763.0 251.0
763.0 257.0
763.0 263.0
763.0 269.0
763.0 275.0
763.0 281.0
763.0 287.0
763.0 293.0
763.0 299.0
763.0 305.0
763.0 311.0
763.0 317.0
763.0 323.0
763.0 329.0
763.0 335.0
763.0 341.0
763.0 347.0
763.0 353.0
763.0 359.0
763.0 365.0
763.0 371.0
763.0 377.0
763.0 383.0
763.0 389.0
763.0 395.0
842.0 321.0
842.0 373.0
843.0 85.0
843.0 146.0
852.0 319.0
852.0 367.0
857.0 59.0
857.0 313.0
857.0 350.0
857.0 383.0
860.0 63.0
860.0 122.0
860.0 183.0
860.0 315.0
861.0 87.0
861.0 152.0
866.0 35.0
866.0 55.0
866.0 76.0
866.0 99.0
866.0 124.0
866.0 149.0
866.0 174.0
866.0 202.0
866.0 232.0
866.0 262.0
866.0 289.0
866.0 314.0
866.0 334.0
866.0 357.0
866.0 377.0
866.0 399.0
880.0 54.0
880.0 96.0
880.0 156.0
880.0 314.0
880.0 354.0
880.0 398.0
941.0 324.0
941.0 374.0
949.0 61.0
949.0 314.0
949.0 355.0
949.0 394.0
950.0 319.0
950.0 373.0
959.0 94.0
959.0 314.0
959.0 357.0
973.0 63.0
973.0 313.0
973.0 355.0
973.0 397.0
991.0 69.0
991.0 316.0
991.0 360.0
1001.0 55.0
1001.0 321.0
1001.0 370.0
1012.0 51.0
1012.0 101.0
1012.0 315.0
1012.0 358.0
1016.0 54.0
1016.0 319.0
1016.0 366.0
1038.0 51.0
1038.0 107.0
1038.0 316.0
1038.0 359.0
1068.0 97.0
1068.0 319.0
1068.0 363.0
1075.0 319.0
1075.0 367.0
1087.0 321.0
1087.0 369.0
1088.0 319.0
1088.0 366.0
1105.0 57.0
1105.0 298.0
1105.0 337.0
1105.0 374.0
1114.0 62.0
1114.0 312.0
1114.0 355.0
1118.0 94.0
1118.0 315.0
1118.0 360.0
1135.0 321.0
1135.0 372.0
1156.0 51.0
1156.0 118.0
1156.0 316.0
1156.0 361.0
1165.0 51.0
1165.0 102.0
1165.0 314.0
1165.0 357.0
1172.0 49.0
1172.0 102.0
1172.0 315.0
1172.0 358.0
1204.0 317.0
1204.0 362.0
1222.0 64.0
1222.0 316.0
1222.0 357.0
1222.0 400.0
1226.0 61.0
1226.0 303.0
1226.0 344.0
1226.0 381.0
1251.0 52.0
1251.0 135.0
1251.0 317.0
1251.0 360.0
1253.0 53.0
1253.0 154.0
1253.0 317.0
1253.0 364.0
1254.0 315.0
1254.0 359.0
1337.0 77.0
1337.0 312.0
1337.0 357.0
1337.0 400.0
1340.0 315.0
1340.0 362.0
1345.0 315.0
1345.0 359.0
1390.0 54.0
1390.0 160.0
1390.0 315.0
1390.0 359.0
1404.0 54.0
1404.0 318.0
1404.0 365.0
1417.0 324.0
1417.0 376.0
1418.0 317.0
1418.0 364.0
1423.0 316.0
1423.0 363.0
1442.0 7.0
1442.0 12.0
1442.0 16.0
1442.0 20.0
1442.0 24.0
1442.0 28.0
1442.0 32.0
1442.0 36.0
1442.0 40.0
1442.0 44.0
1442.0 49.0
1442.0 53.0
1442.0 59.0
1442.0 64.0
1442.0 69.0
1442.0 74.0
1442.0 79.0
1442.0 84.0
1442.0 89.0
1442.0 95.0
1442.0 101.0
1442.0 107.0
1442.0 113.0
1442.0 119.0
1442.0 125.0
1442.0 131.0
1442.0 137.0
1442.0 143.0
1442.0 149.0
1442.0 155.0
1442.0 161.0
1442.0 167.0
1442.0 173.0
1442.0 179.0
1442.0 185.0
1442.0 191.0
1442.0 197.0
1442.0 203.0
1442.0 209.0
1442.0 215.0
1442.0 221.0
1442.0 227.0
1442.0 233.0
1442.0 239.0
1442.0 245.0
1442.0 251.0
1442.0 257.0
1442.0 263.0
1442.0 269.0
1442.0 274.0
1442.0 279.0
1442.0 284.0
1442.0 289.0
1442.0 294.0
1442.0 299.0
1442.0 304.0
1442.0 308.0
1442.0 312.0
1442.0 316.0
1442.0 320.0
1442.0 324.0
1442.0 328.0
1442.0 332.0
1442.0 336.0
1442.0 340.0
1442.0 344.0
1442.0 348.0
1442.0 352.0
1442.0 356.0
1442.0 360.0
1442.0 364.0
1442.0 368.0
1442.0 372.0
1442.0 376.0
1442.0 380.0
1442.0 384.0
1442.0 388.0
1442.0 392.0
1442.0 396.0
