14.0 47.0
14.0 82.0
14.0 112.0
14.0 143.0
14.0 176.0
14.0 207.0
14.0 239.0
14.0 271.0
14.0 303.0
14.0 335.0
14.0 368.0
26.0 9.0
26.0 15.0
26.0 21.0
26.0 28.0
26.0 36.0
26.0 44.0
26.0 52.0
26.0 60.0
26.0 68.0
26.0 76.0
26.0 84.0
26.0 92.0
26.0 100.0
26.0 108.0
26.0 116.0
26.0 124.0
26.0 132.0
26.0 140.0
26.0 148.0
26.0 156.0
26.0 164.0
26.0 172.0
26.0 180.0
26.0 188.0
26.0 196.0
26.0 204.0
26.0 212.0
26.0 220.0
26.0 228.0
26.0 236.0
26.0 244.0
26.0 252.0
26.0 260.0
26.0 268.0
26.0 276.0
26.0 284.0
26.0 292.0
26.0 300.0
26.0 308.0
26.0 316.0
26.0 324.0
26.0 332.0
26.0 340.0
26.0 348.0
26.0 356.0
26.0 365.0
26.0 375.0
26.0 385.0
62.0 46.0
62.0 81.0
62.0 114.0
62.0 145.0
62.0 177.0
62.0 210.0
62.0 243.0
62.0 274.0
62.0 306.0
62.0 338.0
62.0 370.0
77.0 119.0
77.0 229.0
77.0 358.0
87.0 48.0
87.0 87.0
87.0 121.0
87.0 154.0
87.0 190.0
87.0 226.0
87.0 262.0
87.0 298.0
87.0 334.0
87.0 370.0
112.0 46.0
112.0 78.0
112.0 106.0
112.0 134.0
112.0 165.0
112.0 214.0
112.0 270.0
112.0 313.0
112.0 347.0
112.0 377.0
121.0 115.0
129.0 48.0
129.0 82.0
129.0 118.0
129.0 154.0
129.0 224.0
129.0 289.0
129.0 333.0
129.0 371.0
139.0 118.0
157.0 50.0
157.0 90.0
157.0 123.0
157.0 156.0
157.0 192.0
157.0 226.0
157.0 259.0
157.0 293.0
157.0 327.0
157.0 358.0
157.0 394.0
158.0 118.0
158.0 399.0
159.0 47.0
159.0 83.0
159.0 119.0
159.0 150.0
159.0 186.0
159.0 219.0
159.0 252.0
159.0 287.0
159.0 321.0
159.0 354.0
159.0 392.0
165.0 59.0
165.0 105.0
165.0 146.0
165.0 186.0
165.0 225.0
165.0 265.0
165.0 306.0
165.0 348.0
165.0 392.0
166.0 49.0
166.0 85.0
166.0 117.0
166.0 148.0
166.0 180.0
166.0 213.0
166.0 246.0
166.0 279.0
166.0 312.0
166.0 346.0
166.0 381.0
167.0 51.0
167.0 90.0
167.0 126.0
167.0 161.0
167.0 196.0
167.0 233.0
167.0 268.0
167.0 305.0
167.0 339.0
167.0 380.0
185.0 47.0
185.0 80.0
185.0 112.0
185.0 141.0
185.0 171.0
185.0 201.0
185.0 233.0
185.0 264.0
185.0 295.0
185.0 327.0
185.0 359.0
185.0 390.0
195.0 109.0
195.0 222.0
195.0 333.0
195.0 399.0
217.0 45.0
217.0 75.0
217.0 105.0
217.0 135.0
217.0 171.0
217.0 226.0
217.0 281.0
217.0 328.0
217.0 360.0
217.0 394.0
224.0 45.0
224.0 73.0
224.0 100.0
224.0 127.0
224.0 154.0
224.0 193.0
224.0 240.0
224.0 285.0
224.0 326.0
224.0 354.0
224.0 383.0
227.0 45.0
227.0 79.0
227.0 111.0
227.0 144.0
227.0 185.0
227.0 249.0
227.0 311.0
227.0 347.0
227.0 379.0
232.0 43.0
232.0 71.0
232.0 97.0
232.0 124.0
232.0 152.0
232.0 186.0
232.0 238.0
232.0 282.0
232.0 322.0
232.0 351.0
232.0 380.0
235.0 96.0
235.0 370.0
241.0 43.0
241.0 71.0
241.0 96.0
241.0 122.0
241.0 146.0
241.0 179.0
241.0 224.0
241.0 267.0
241.0 311.0
241.0 344.0
241.0 369.0
241.0 399.0
258.0 45.0
258.0 78.0
258.0 111.0
258.0 144.0
258.0 187.0
258.0 250.0
258.0 307.0
258.0 345.0
258.0 381.0
259.0 44.0
259.0 81.0
259.0 114.0
259.0 146.0
259.0 212.0
259.0 283.0
259.0 331.0
259.0 366.0
286.0 50.0
286.0 86.0
286.0 115.0
286.0 146.0
286.0 179.0
286.0 212.0
286.0 243.0
286.0 275.0
286.0 307.0
286.0 338.0
286.0 368.0
296.0 44.0
296.0 76.0
296.0 105.0
296.0 131.0
296.0 157.0
296.0 186.0
296.0 214.0
296.0 242.0
296.0 269.0
296.0 297.0
296.0 326.0
296.0 353.0
296.0 385.0
297.0 121.0
297.0 223.0
297.0 314.0
297.0 397.0
303.0 44.0
303.0 75.0
303.0 103.0
303.0 130.0
303.0 157.0
303.0 185.0
303.0 214.0
303.0 242.0
303.0 269.0
303.0 297.0
303.0 325.0
303.0 353.0
303.0 381.0
306.0 48.0
306.0 82.0
306.0 113.0
306.0 143.0
306.0 173.0
306.0 203.0
306.0 233.0
306.0 264.0
306.0 296.0
306.0 329.0
306.0 360.0
306.0 391.0
328.0 47.0
328.0 82.0
328.0 114.0
328.0 152.0
328.0 231.0
328.0 296.0
328.0 344.0
328.0 380.0
334.0 43.0
334.0 73.0
334.0 101.0
334.0 127.0
334.0 155.0
334.0 192.0
334.0 240.0
334.0 286.0
334.0 329.0
334.0 359.0
334.0 389.0
338.0 121.0
344.0 112.0
344.0 385.0
347.0 27.0
347.0 41.0
347.0 54.0
347.0 68.0
347.0 82.0
347.0 95.0
347.0 108.0
347.0 120.0
347.0 134.0
347.0 146.0
347.0 159.0
347.0 173.0
347.0 188.0
347.0 202.0
347.0 217.0
347.0 232.0
347.0 248.0
347.0 263.0
347.0 279.0
347.0 294.0
347.0 309.0
347.0 324.0
347.0 337.0
347.0 351.0
347.0 364.0
347.0 378.0
347.0 392.0
355.0 115.0
355.0 385.0
366.0 42.0
366.0 72.0
366.0 98.0
366.0 123.0
366.0 152.0
366.0 192.0
366.0 236.0
366.0 280.0
366.0 320.0
366.0 350.0
366.0 380.0
368.0 103.0
368.0 387.0
375.0 108.0
375.0 381.0
377.0 91.0
377.0 366.0
382.0 49.0
382.0 86.0
382.0 121.0
382.0 158.0
382.0 257.0
382.0 321.0
382.0 357.0
382.0 397.0
383.0 89.0
383.0 148.0
383.0 377.0
407.0 102.0
407.0 186.0
407.0 280.0
407.0 363.0
415.0 170.0
415.0 355.0
426.0 108.0
426.0 192.0
426.0 273.0
426.0 348.0
428.0 44.0
428.0 78.0
428.0 108.0
428.0 138.0
428.0 170.0
428.0 202.0
428.0 234.0
428.0 267.0
428.0 298.0
428.0 330.0
428.0 360.0
428.0 394.0
434.0 47.0
434.0 82.0
434.0 112.0
434.0 142.0
434.0 175.0
434.0 204.0
434.0 236.0
434.0 267.0
434.0 298.0
434.0 330.0
434.0 363.0
434.0 397.0
435.0 49.0
435.0 83.0
435.0 110.0
435.0 135.0
435.0 162.0
435.0 193.0
435.0 225.0
435.0 253.0
435.0 287.0
435.0 314.0
435.0 346.0
435.0 371.0
436.0 112.0
436.0 247.0
436.0 334.0
438.0 133.0
438.0 394.0
445.0 96.0
445.0 141.0
445.0 198.0
445.0 255.0
445.0 310.0
445.0 363.0
449.0 86.0
449.0 125.0
449.0 349.0
450.0 44.0
450.0 78.0
450.0 106.0
450.0 136.0
450.0 169.0
450.0 199.0
450.0 230.0
450.0 260.0
450.0 290.0
450.0 322.0
450.0 353.0
450.0 386.0
456.0 33.0
456.0 52.0
456.0 70.0
456.0 88.0
456.0 105.0
456.0 123.0
456.0 140.0
456.0 158.0
456.0 178.0
456.0 198.0
456.0 218.0
456.0 238.0
456.0 259.0
456.0 280.0
456.0 300.0
456.0 320.0
456.0 339.0
456.0 357.0
456.0 374.0
456.0 391.0
466.0 75.0
466.0 123.0
466.0 352.0
466.0 395.0
467.0 127.0
467.0 396.0
468.0 86.0
468.0 123.0
468.0 345.0
468.0 397.0
474.0 93.0
474.0 358.0
475.0 77.0
475.0 134.0
475.0 348.0
476.0 98.0
476.0 157.0
476.0 219.0
476.0 280.0
476.0 334.0
476.0 391.0
477.0 51.0
477.0 88.0
477.0 119.0
477.0 152.0
477.0 187.0
477.0 224.0
477.0 260.0
477.0 296.0
477.0 332.0
477.0 364.0
478.0 97.0
478.0 161.0
478.0 356.0
482.0 109.0
482.0 395.0
484.0 114.0
487.0 46.0
487.0 81.0
487.0 112.0
487.0 145.0
487.0 195.0
487.0 257.0
487.0 308.0
487.0 345.0
487.0 380.0
493.0 101.0
493.0 383.0
496.0 112.0
496.0 394.0
502.0 116.0
502.0 398.0
504.0 111.0
513.0 108.0
513.0 397.0
517.0 118.0
540.0 129.0
540.0 250.0
540.0 352.0
547.0 101.0
547.0 169.0
547.0 251.0
547.0 337.0
558.0 45.0
558.0 78.0
558.0 106.0
558.0 133.0
558.0 159.0
558.0 188.0
558.0 218.0
558.0 245.0
558.0 275.0
558.0 301.0
558.0 330.0
558.0 358.0
558.0 387.0
567.0 122.0
567.0 375.0
568.0 110.0
568.0 211.0
568.0 296.0
568.0 398.0
580.0 50.0
580.0 91.0
580.0 130.0
580.0 164.0
580.0 201.0
580.0 238.0
580.0 274.0
580.0 310.0
580.0 346.0
580.0 382.0
581.0 121.0
581.0 387.0
588.0 102.0
588.0 152.0
588.0 245.0
588.0 324.0
588.0 389.0
589.0 96.0
589.0 153.0
589.0 352.0
590.0 120.0
590.0 389.0
591.0 31.0
591.0 48.0
591.0 65.0
591.0 81.0
591.0 97.0
591.0 112.0
591.0 128.0
591.0 144.0
591.0 159.0
591.0 177.0
591.0 195.0
591.0 213.0
591.0 232.0
591.0 251.0
591.0 269.0
591.0 287.0
591.0 305.0
591.0 323.0
591.0 340.0
591.0 356.0
591.0 372.0
591.0 388.0
598.0 108.0
598.0 379.0
599.0 27.0
599.0 41.0
599.0 56.0
599.0 70.0
599.0 84.0
599.0 97.0
599.0 110.0
599.0 123.0
599.0 137.0
599.0 150.0
599.0 163.0
599.0 178.0
599.0 193.0
599.0 209.0
599.0 225.0
599.0 241.0
599.0 257.0
599.0 273.0
599.0 288.0
599.0 303.0
599.0 318.0
599.0 332.0
599.0 345.0
599.0 358.0
599.0 372.0
599.0 386.0
599.0 400.0
600.0 113.0
600.0 399.0
601.0 80.0
601.0 125.0
601.0 348.0
601.0 393.0
605.0 42.0
605.0 69.0
605.0 97.0
605.0 121.0
605.0 147.0
605.0 182.0
605.0 221.0
605.0 266.0
605.0 299.0
605.0 333.0
605.0 361.0
605.0 390.0
606.0 148.0
607.0 49.0
607.0 82.0
607.0 109.0
607.0 137.0
607.0 163.0
607.0 194.0
607.0 226.0
607.0 257.0
607.0 286.0
607.0 316.0
607.0 346.0
607.0 376.0
612.0 75.0
612.0 126.0
612.0 349.0
612.0 400.0
613.0 102.0
613.0 358.0
615.0 112.0
615.0 356.0
623.0 43.0
623.0 75.0
623.0 106.0
623.0 132.0
623.0 162.0
623.0 218.0
623.0 275.0
623.0 319.0
623.0 352.0
623.0 383.0
625.0 71.0
625.0 122.0
625.0 345.0
628.0 134.0
631.0 109.0
631.0 378.0
632.0 42.0
632.0 70.0
632.0 96.0
632.0 122.0
632.0 146.0
632.0 179.0
632.0 222.0
632.0 267.0
632.0 307.0
632.0 339.0
632.0 364.0
632.0 392.0
634.0 113.0
638.0 108.0
638.0 385.0
640.0 133.0
641.0 99.0
641.0 385.0
648.0 119.0
662.0 134.0
671.0 80.0
671.0 121.0
671.0 168.0
671.0 219.0
671.0 272.0
671.0 323.0
671.0 365.0
677.0 95.0
677.0 142.0
677.0 196.0
677.0 262.0
677.0 319.0
677.0 377.0
679.0 89.0
679.0 134.0
679.0 185.0
679.0 237.0
679.0 290.0
679.0 345.0
679.0 392.0
680.0 6.0
680.0 10.0
680.0 13.0
680.0 16.0
680.0 19.0
680.0 22.0
680.0 25.0
680.0 28.0
680.0 31.0
680.0 35.0
680.0 38.0
680.0 41.0
680.0 44.0
680.0 47.0
680.0 51.0
680.0 54.0
680.0 57.0
680.0 60.0
680.0 63.0
680.0 67.0
680.0 70.0
680.0 73.0
680.0 76.0
680.0 79.0
680.0 82.0
680.0 85.0
680.0 88.0
680.0 91.0
680.0 94.0
680.0 97.0
680.0 100.0
680.0 103.0
680.0 106.0
680.0 109.0
680.0 112.0
680.0 115.0
680.0 118.0
680.0 121.0
680.0 124.0
680.0 127.0
680.0 130.0
680.0 133.0
680.0 136.0
680.0 139.0
680.0 142.0
680.0 145.0
680.0 148.0
680.0 151.0
680.0 154.0
680.0 157.0
680.0 160.0
680.0 163.0
680.0 166.0
680.0 169.0
680.0 172.0
680.0 175.0
680.0 178.0
680.0 181.0
680.0 184.0
680.0 187.0
680.0 190.0
680.0 193.0
680.0 196.0
680.0 199.0
680.0 202.0
680.0 205.0
680.0 208.0
680.0 211.0
680.0 214.0
680.0 217.0
680.0 220.0
680.0 223.0
680.0 226.0
680.0 229.0
680.0 232.0
680.0 235.0
680.0 238.0
680.0 241.0
680.0 244.0
680.0 247.0
680.0 250.0
680.0 253.0
680.0 256.0
680.0 259.0
680.0 262.0
680.0 265.0
680.0 268.0
680.0 271.0
680.0 274.0
680.0 277.0
680.0 280.0
680.0 283.0
680.0 286.0
680.0 289.0
680.0 292.0
680.0 295.0
680.0 298.0
680.0 301.0
680.0 304.0
680.0 307.0
680.0 310.0
680.0 313.0
680.0 316.0
680.0 319.0
680.0 322.0
680.0 325.0
680.0 328.0
680.0 331.0
680.0 334.0
680.0 337.0
680.0 340.0
680.0 343.0
680.0 346.0
680.0 349.0
680.0 352.0
680.0 355.0
680.0 358.0
680.0 361.0
680.0 364.0
680.0 367.0
680.0 370.0
680.0 373.0
680.0 376.0
680.0 379.0
680.0 382.0
680.0 385.0
680.0 388.0
680.0 391.0
680.0 394.0
680.0 400.0
686.0 143.0
686.0 349.0
687.0 120.0
687.0 213.0
687.0 301.0
695.0 103.0
695.0 162.0
695.0 227.0
695.0 293.0
695.0 354.0
696.0 50.0
696.0 83.0
696.0 114.0
696.0 146.0
696.0 181.0
696.0 213.0
696.0 246.0
696.0 281.0
696.0 308.0
696.0 350.0
698.0 97.0
698.0 147.0
698.0 216.0
698.0 288.0
698.0 345.0
704.0 88.0
704.0 136.0
704.0 184.0
704.0 232.0
704.0 281.0
704.0 331.0
704.0 382.0
705.0 100.0
705.0 150.0
705.0 210.0
705.0 264.0
705.0 321.0
705.0 390.0
707.0 101.0
707.0 152.0
707.0 239.0
707.0 313.0
707.0 386.0
708.0 49.0
708.0 85.0
708.0 114.0
708.0 148.0
708.0 212.0
708.0 290.0
708.0 339.0
708.0 372.0
709.0 44.0
709.0 74.0
709.0 101.0
709.0 127.0
709.0 154.0
709.0 184.0
709.0 211.0
709.0 241.0
709.0 269.0
709.0 298.0
709.0 325.0
709.0 352.0
709.0 382.0
710.0 119.0
714.0 34.0
714.0 52.0
714.0 70.0
714.0 88.0
714.0 105.0
714.0 121.0
714.0 138.0
714.0 155.0
714.0 172.0
714.0 189.0
714.0 206.0
714.0 223.0
714.0 240.0
714.0 257.0
714.0 274.0
714.0 290.0
714.0 305.0
714.0 321.0
714.0 339.0
714.0 358.0
714.0 378.0
714.0 397.0
716.0 112.0
716.0 396.0
717.0 94.0
717.0 140.0
717.0 200.0
717.0 252.0
717.0 302.0
717.0 357.0
718.0 45.0
718.0 77.0
718.0 107.0
718.0 135.0
718.0 164.0
718.0 195.0
718.0 226.0
718.0 258.0
718.0 287.0
718.0 317.0
718.0 347.0
718.0 377.0
719.0 98.0
719.0 194.0
719.0 287.0
725.0 34.0
725.0 51.0
725.0 67.0
725.0 83.0
725.0 99.0
725.0 115.0
725.0 130.0
725.0 145.0
725.0 161.0
725.0 180.0
725.0 199.0
725.0 218.0
725.0 238.0
725.0 258.0
725.0 278.0
725.0 296.0
725.0 313.0
725.0 332.0
725.0 350.0
725.0 369.0
725.0 388.0
726.0 84.0
726.0 133.0
726.0 357.0
729.0 127.0
729.0 293.0
734.0 44.0
734.0 74.0
734.0 100.0
734.0 125.0
734.0 153.0
734.0 181.0
734.0 210.0
734.0 240.0
734.0 268.0
734.0 293.0
734.0 322.0
734.0 356.0
734.0 398.0
735.0 32.0
735.0 49.0
735.0 66.0
735.0 83.0
735.0 99.0
735.0 114.0
735.0 131.0
735.0 147.0
735.0 164.0
735.0 182.0
735.0 201.0
735.0 221.0
735.0 241.0
735.0 261.0
735.0 280.0
735.0 298.0
735.0 317.0
735.0 336.0
735.0 355.0
735.0 372.0
735.0 390.0
736.0 31.0
736.0 49.0
736.0 66.0
736.0 84.0
736.0 100.0
736.0 115.0
736.0 130.0
736.0 146.0
736.0 163.0
736.0 183.0
736.0 202.0
736.0 222.0
736.0 242.0
736.0 262.0
736.0 281.0
736.0 299.0
736.0 317.0
736.0 334.0
736.0 351.0
736.0 367.0
736.0 383.0
736.0 398.0
737.0 127.0
737.0 391.0
738.0 34.0
738.0 53.0
738.0 73.0
738.0 92.0
738.0 109.0
738.0 127.0
738.0 145.0
738.0 162.0
738.0 180.0
738.0 199.0
738.0 217.0
738.0 236.0
738.0 254.0
738.0 272.0
738.0 290.0
738.0 307.0
738.0 324.0
738.0 343.0
738.0 364.0
738.0 385.0
743.0 94.0
743.0 356.0
744.0 45.0
744.0 76.0
744.0 105.0
744.0 139.0
744.0 169.0
744.0 202.0
744.0 235.0
744.0 268.0
744.0 299.0
744.0 335.0
744.0 381.0
745.0 43.0
745.0 75.0
745.0 104.0
745.0 132.0
745.0 162.0
745.0 226.0
745.0 285.0
745.0 330.0
745.0 361.0
745.0 392.0
751.0 97.0
751.0 154.0
751.0 356.0
754.0 86.0
754.0 138.0
754.0 363.0
762.0 60.0
762.0 110.0
762.0 155.0
762.0 339.0
762.0 388.0
763.0 6.0
763.0 10.0
763.0 13.0
763.0 16.0
763.0 19.0
763.0 22.0
763.0 25.0
763.0 28.0
763.0 31.0
763.0 34.0
763.0 37.0
763.0 40.0
763.0 43.0
763.0 46.0
763.0 49.0
763.0 52.0
763.0 55.0
763.0 58.0
763.0 61.0
763.0 64.0
763.0 67.0
763.0 70.0
763.0 73.0
763.0 76.0
763.0 79.0
763.0 82.0
763.0 85.0
763.0 88.0
763.0 91.0
763.0 94.0
763.0 97.0
763.0 100.0
763.0 103.0
763.0 106.0
763.0 109.0
763.0 112.0
763.0 115.0
763.0 118.0
763.0 121.0
763.0 124.0
763.0 127.0
763.0 130.0
763.0 133.0
763.0 136.0
763.0 139.0
763.0 142.0
763.0 145.0
763.0 148.0
763.0 151.0
763.0 154.0
763.0 158.0
763.0 162.0
763.0 166.0
763.0 169.0
763.0 173.0
763.0 177.0
763.0 180.0
763.0 184.0
763.0 188.0
763.0 192.0
763.0 196.0
763.0 200.0
763.0 204.0
763.0 208.0
763.0 212.0
763.0 216.0
763.0 220.0
763.0 224.0
763.0 228.0
763.0 232.0
763.0 236.0
763.0 240.0
763.0 244.0
763.0 248.0
763.0 252.0
763.0 256.0
763.0 260.0
763.0 264.0
763.0 268.0
763.0 272.0
763.0 275.0
763.0 279.0
763.0 283.0
763.0 286.0
763.0 290.0
763.0 294.0
763.0 298.0
763.0 302.0
763.0 305.0
763.0 309.0
763.0 313.0
763.0 316.0
763.0 320.0
763.0 323.0
763.0 326.0
763.0 329.0
763.0 332.0
763.0 335.0
763.0 338.0
763.0 341.0
763.0 344.0
763.0 347.0
763.0 350.0
763.0 353.0
763.0 356.0
763.0 359.0
763.0 362.0
763.0 365.0
763.0 368.0
763.0 371.0
763.0 374.0
763.0 377.0
763.0 380.0
763.0 383.0
763.0 386.0
763.0 389.0
763.0 392.0
763.0 395.0
770.0 139.0
796.0 151.0
796.0 292.0
801.0 93.0
801.0 144.0
801.0 198.0
801.0 264.0
801.0 321.0
801.0 390.0
805.0 142.0
805.0 251.0
805.0 355.0
807.0 110.0
807.0 194.0
807.0 269.0
807.0 335.0
808.0 139.0
808.0 295.0
811.0 111.0
811.0 183.0
811.0 275.0
811.0 356.0
819.0 127.0
819.0 246.0
819.0 319.0
827.0 76.0
827.0 129.0
827.0 183.0
827.0 238.0
827.0 288.0
827.0 339.0
827.0 394.0
831.0 120.0
831.0 363.0
832.0 115.0
832.0 294.0
832.0 396.0
833.0 106.0
833.0 185.0
833.0 286.0
833.0 364.0
837.0 106.0
837.0 157.0
837.0 224.0
837.0 281.0
837.0 340.0
837.0 397.0
839.0 92.0
839.0 146.0
839.0 207.0
839.0 278.0
839.0 338.0
841.0 32.0
841.0 52.0
841.0 72.0
841.0 92.0
841.0 112.0
841.0 131.0
841.0 150.0
841.0 172.0
841.0 196.0
841.0 220.0
841.0 244.0
841.0 268.0
841.0 292.0
841.0 314.0
841.0 336.0
841.0 355.0
841.0 375.0
841.0 394.0
842.0 32.0
842.0 52.0
842.0 73.0
842.0 92.0
842.0 111.0
842.0 129.0
842.0 148.0
842.0 167.0
842.0 187.0
842.0 206.0
842.0 225.0
842.0 244.0
842.0 263.0
842.0 282.0
842.0 301.0
842.0 319.0
842.0 340.0
842.0 361.0
842.0 383.0
843.0 32.0
843.0 50.0
843.0 67.0
843.0 85.0
843.0 103.0
843.0 119.0
843.0 136.0
843.0 154.0
843.0 172.0
843.0 193.0
843.0 214.0
843.0 235.0
843.0 256.0
843.0 277.0
843.0 296.0
843.0 316.0
843.0 335.0
843.0 352.0
843.0 369.0
843.0 386.0
847.0 114.0
847.0 213.0
847.0 280.0
847.0 369.0
848.0 127.0
850.0 91.0
850.0 149.0
850.0 276.0
851.0 76.0
851.0 116.0
851.0 168.0
851.0 222.0
851.0 278.0
851.0 330.0
852.0 32.0
852.0 50.0
852.0 68.0
852.0 86.0
852.0 102.0
852.0 117.0
852.0 133.0
852.0 150.0
852.0 167.0
852.0 185.0
852.0 203.0
852.0 220.0
852.0 237.0
852.0 255.0
852.0 272.0
852.0 289.0
852.0 306.0
852.0 323.0
852.0 342.0
852.0 361.0
852.0 381.0
852.0 399.0
857.0 33.0
857.0 50.0
857.0 66.0
857.0 82.0
857.0 97.0
857.0 112.0
857.0 127.0
857.0 142.0
857.0 158.0
857.0 174.0
857.0 190.0
857.0 206.0
857.0 222.0
857.0 238.0
857.0 253.0
857.0 270.0
857.0 285.0
857.0 300.0
857.0 315.0
857.0 332.0
857.0 349.0
857.0 367.0
857.0 385.0
859.0 104.0
859.0 160.0
859.0 249.0
859.0 342.0
859.0 390.0
860.0 31.0
860.0 47.0
860.0 62.0
860.0 78.0
860.0 93.0
860.0 107.0
860.0 122.0
860.0 137.0
860.0 153.0
860.0 168.0
860.0 185.0
860.0 203.0
860.0 222.0
860.0 240.0
860.0 258.0
860.0 276.0
860.0 292.0
860.0 309.0
860.0 326.0
860.0 341.0
860.0 356.0
860.0 371.0
860.0 387.0
861.0 32.0
861.0 50.0
861.0 68.0
861.0 86.0
861.0 103.0
861.0 119.0
861.0 136.0
861.0 154.0
861.0 173.0
861.0 195.0
861.0 216.0
861.0 238.0
861.0 260.0
861.0 282.0
861.0 302.0
861.0 324.0
861.0 342.0
861.0 359.0
861.0 377.0
861.0 393.0
863.0 112.0
863.0 296.0
864.0 108.0
864.0 166.0
864.0 314.0
866.0 25.0
866.0 36.0
866.0 47.0
866.0 58.0
866.0 69.0
866.0 80.0
866.0 91.0
866.0 101.0
866.0 112.0
866.0 122.0
866.0 132.0
866.0 142.0
866.0 153.0
866.0 164.0
866.0 175.0
866.0 187.0
866.0 198.0
866.0 209.0
866.0 221.0
866.0 233.0
866.0 244.0
866.0 256.0
866.0 268.0
866.0 280.0
866.0 291.0
866.0 303.0
866.0 314.0
866.0 325.0
866.0 336.0
866.0 347.0
866.0 358.0
866.0 369.0
866.0 380.0
866.0 391.0
869.0 130.0
870.0 76.0
870.0 126.0
870.0 359.0
871.0 304.0
872.0 115.0
872.0 307.0
875.0 107.0
875.0 389.0
880.0 34.0
880.0 52.0
880.0 69.0
880.0 86.0
880.0 103.0
880.0 119.0
880.0 135.0
880.0 152.0
880.0 170.0
880.0 190.0
880.0 211.0
880.0 231.0
880.0 252.0
880.0 274.0
880.0 293.0
880.0 311.0
880.0 331.0
880.0 349.0
880.0 369.0
880.0 389.0
881.0 96.0
881.0 156.0
881.0 379.0
883.0 106.0
883.0 389.0
886.0 95.0
886.0 370.0
889.0 98.0
889.0 160.0
889.0 386.0
892.0 142.0
893.0 129.0
894.0 93.0
894.0 144.0
894.0 376.0
903.0 118.0
911.0 148.0
911.0 393.0
941.0 32.0
941.0 52.0
941.0 73.0
941.0 93.0
941.0 112.0
941.0 131.0
941.0 150.0
941.0 169.0
941.0 189.0
941.0 208.0
941.0 227.0
941.0 246.0
941.0 266.0
941.0 284.0
941.0 302.0
941.0 321.0
941.0 343.0
941.0 365.0
941.0 388.0
942.0 111.0
942.0 177.0
942.0 258.0
942.0 327.0
949.0 32.0
949.0 50.0
949.0 67.0
949.0 83.0
949.0 99.0
949.0 114.0
949.0 130.0
949.0 146.0
949.0 163.0
949.0 179.0
949.0 195.0
949.0 211.0
949.0 227.0
949.0 243.0
949.0 259.0
949.0 275.0
949.0 291.0
949.0 306.0
949.0 322.0
949.0 339.0
949.0 357.0
949.0 375.0
949.0 394.0
950.0 31.0
950.0 50.0
950.0 70.0
950.0 89.0
950.0 106.0
950.0 123.0
950.0 141.0
950.0 159.0
950.0 176.0
950.0 194.0
950.0 212.0
950.0 230.0
950.0 248.0
950.0 267.0
950.0 284.0
950.0 300.0
950.0 318.0
950.0 338.0
950.0 357.0
950.0 377.0
950.0 397.0
951.0 97.0
951.0 175.0
951.0 267.0
951.0 325.0
953.0 114.0
953.0 280.0
959.0 33.0
959.0 53.0
959.0 73.0
959.0 91.0
959.0 109.0
959.0 127.0
959.0 144.0
959.0 162.0
959.0 181.0
959.0 200.0
959.0 219.0
959.0 237.0
959.0 256.0
959.0 275.0
959.0 293.0
959.0 309.0
959.0 329.0
959.0 349.0
959.0 370.0
959.0 391.0
960.0 93.0
960.0 141.0
960.0 207.0
960.0 270.0
960.0 343.0
960.0 396.0
964.0 116.0
964.0 285.0
965.0 120.0
965.0 288.0
971.0 109.0
971.0 205.0
971.0 315.0
971.0 396.0
973.0 31.0
973.0 49.0
973.0 67.0
973.0 86.0
973.0 103.0
973.0 120.0
973.0 137.0
973.0 154.0
973.0 170.0
973.0 188.0
973.0 206.0
973.0 223.0
973.0 240.0
973.0 257.0
973.0 274.0
973.0 290.0
973.0 306.0
973.0 322.0
973.0 341.0
973.0 360.0
973.0 380.0
973.0 400.0
975.0 104.0
975.0 170.0
975.0 269.0
975.0 358.0
981.0 97.0
981.0 150.0
981.0 208.0
981.0 280.0
981.0 341.0
981.0 400.0
985.0 77.0
985.0 125.0
985.0 179.0
985.0 241.0
985.0 296.0
989.0 87.0
989.0 137.0
989.0 351.0
991.0 32.0
991.0 50.0
991.0 67.0
991.0 85.0
991.0 101.0
991.0 117.0
991.0 134.0
991.0 151.0
991.0 168.0
991.0 185.0
991.0 202.0
991.0 219.0
991.0 236.0
991.0 253.0
991.0 270.0
991.0 286.0
991.0 303.0
991.0 319.0
991.0 337.0
991.0 355.0
991.0 375.0
991.0 395.0
992.0 93.0
992.0 156.0
992.0 371.0
994.0 92.0
994.0 149.0
994.0 352.0
994.0 399.0
997.0 294.0
998.0 282.0
1001.0 32.0
1001.0 51.0
1001.0 69.0
1001.0 88.0
1001.0 105.0
1001.0 122.0
1001.0 139.0
1001.0 157.0
1001.0 179.0
1001.0 202.0
1001.0 223.0
1001.0 245.0
1001.0 267.0
1001.0 287.0
1001.0 307.0
1001.0 328.0
1001.0 349.0
1001.0 369.0
1001.0 388.0
1002.0 117.0
1002.0 293.0
1003.0 107.0
1010.0 102.0
1010.0 376.0
1012.0 31.0
1012.0 49.0
1012.0 67.0
1012.0 85.0
1012.0 101.0
1012.0 118.0
1012.0 135.0
1012.0 153.0
1012.0 173.0
1012.0 193.0
1012.0 215.0
1012.0 237.0
1012.0 259.0
1012.0 279.0
1012.0 298.0
1012.0 317.0
1012.0 337.0
1012.0 356.0
1012.0 375.0
1012.0 395.0
1014.0 76.0
1014.0 125.0
1014.0 350.0
1014.0 398.0
1016.0 34.0
1016.0 53.0
1016.0 72.0
1016.0 91.0
1016.0 109.0
1016.0 128.0
1016.0 146.0
1016.0 165.0
1016.0 187.0
1016.0 210.0
1016.0 234.0
1016.0 258.0
1016.0 281.0
1016.0 303.0
1016.0 323.0
1016.0 344.0
1016.0 365.0
1016.0 387.0
1018.0 83.0
1018.0 129.0
1018.0 351.0
1021.0 106.0
1021.0 394.0
1022.0 96.0
1022.0 371.0
1028.0 325.0
1031.0 90.0
1031.0 144.0
1031.0 367.0
1038.0 32.0
1038.0 50.0
1038.0 67.0
1038.0 85.0
1038.0 102.0
1038.0 119.0
1038.0 136.0
1038.0 153.0
1038.0 172.0
1038.0 192.0
1038.0 213.0
1038.0 234.0
1038.0 255.0
1038.0 276.0
1038.0 295.0
1038.0 315.0
1038.0 335.0
1038.0 354.0
1038.0 374.0
1038.0 394.0
1067.0 115.0
1067.0 250.0
1067.0 326.0
1068.0 32.0
1068.0 51.0
1068.0 70.0
1068.0 89.0
1068.0 107.0
1068.0 124.0
1068.0 142.0
1068.0 160.0
1068.0 178.0
1068.0 196.0
1068.0 214.0
1068.0 232.0
1068.0 250.0
1068.0 268.0
1068.0 286.0
1068.0 303.0
1068.0 320.0
1068.0 340.0
1068.0 361.0
1068.0 382.0
1075.0 32.0
1075.0 51.0
1075.0 70.0
1075.0 90.0
1075.0 108.0
1075.0 126.0
1075.0 144.0
1075.0 162.0
1075.0 181.0
1075.0 199.0
1075.0 217.0
1075.0 236.0
1075.0 255.0
1075.0 274.0
1075.0 292.0
1075.0 309.0
1075.0 328.0
1075.0 348.0
1075.0 369.0
1075.0 391.0
1084.0 96.0
1084.0 147.0
1084.0 214.0
1084.0 283.0
1084.0 348.0
1087.0 32.0
1087.0 51.0
1087.0 70.0
1087.0 89.0
1087.0 107.0
1087.0 124.0
1087.0 142.0
1087.0 160.0
1087.0 178.0
1087.0 196.0
1087.0 214.0
1087.0 232.0
1087.0 250.0
1087.0 268.0
1087.0 286.0
1087.0 303.0
1087.0 321.0
1087.0 341.0
1087.0 361.0
1087.0 383.0
1088.0 32.0
1088.0 52.0
1088.0 72.0
1088.0 92.0
1088.0 111.0
1088.0 130.0
1088.0 148.0
1088.0 167.0
1088.0 186.0
1088.0 206.0
1088.0 226.0
1088.0 245.0
1088.0 264.0
1088.0 282.0
1088.0 301.0
1088.0 319.0
1088.0 340.0
1088.0 361.0
1088.0 384.0
1105.0 31.0
1105.0 48.0
1105.0 64.0
1105.0 81.0
1105.0 96.0
1105.0 112.0
1105.0 128.0
1105.0 144.0
1105.0 160.0
1105.0 175.0
1105.0 191.0
1105.0 207.0
1105.0 223.0
1105.0 240.0
1105.0 256.0
1105.0 272.0
1105.0 287.0
1105.0 303.0
1105.0 318.0
1105.0 335.0
1105.0 352.0
1105.0 370.0
1105.0 388.0
1106.0 135.0
1106.0 249.0
1107.0 107.0
1107.0 278.0
1107.0 365.0
1110.0 134.0
1110.0 251.0
1110.0 312.0
1114.0 31.0
1114.0 49.0
1114.0 66.0
1114.0 84.0
1114.0 101.0
1114.0 117.0
1114.0 134.0
1114.0 150.0
1114.0 167.0
1114.0 185.0
1114.0 202.0
1114.0 220.0
1114.0 237.0
1114.0 254.0
1114.0 271.0
1114.0 288.0
1114.0 304.0
1114.0 320.0
1114.0 338.0
1114.0 358.0
1114.0 378.0
1114.0 397.0
1115.0 108.0
1115.0 226.0
1115.0 290.0
1117.0 105.0
1117.0 169.0
1117.0 270.0
1117.0 348.0
1118.0 32.0
1118.0 51.0
1118.0 71.0
1118.0 90.0
1118.0 108.0
1118.0 125.0
1118.0 143.0
1118.0 161.0
1118.0 179.0
1118.0 198.0
1118.0 216.0
1118.0 234.0
1118.0 253.0
1118.0 272.0
1118.0 288.0
1118.0 305.0
1118.0 323.0
1118.0 343.0
1118.0 363.0
1118.0 384.0
1127.0 115.0
1127.0 316.0
1133.0 94.0
1133.0 153.0
1133.0 364.0
1134.0 81.0
1134.0 120.0
1134.0 346.0
1134.0 397.0
1135.0 32.0
1135.0 52.0
1135.0 73.0
1135.0 92.0
1135.0 111.0
1135.0 131.0
1135.0 150.0
1135.0 169.0
1135.0 189.0
1135.0 208.0
1135.0 227.0
1135.0 246.0
1135.0 265.0
1135.0 284.0
1135.0 301.0
1135.0 320.0
1135.0 341.0
1135.0 362.0
1135.0 384.0
1136.0 134.0
1136.0 399.0
1144.0 103.0
1144.0 382.0
1148.0 97.0
1148.0 158.0
1148.0 374.0
1156.0 31.0
1156.0 49.0
1156.0 67.0
1156.0 85.0
1156.0 103.0
1156.0 119.0
1156.0 136.0
1156.0 154.0
1156.0 174.0
1156.0 195.0
1156.0 217.0
1156.0 239.0
1156.0 263.0
1156.0 284.0
1156.0 303.0
1156.0 323.0
1156.0 343.0
1156.0 363.0
1156.0 383.0
1165.0 31.0
1165.0 49.0
1165.0 67.0
1165.0 86.0
1165.0 105.0
1165.0 123.0
1165.0 142.0
1165.0 161.0
1165.0 183.0
1165.0 206.0
1165.0 228.0
1165.0 251.0
1165.0 273.0
1165.0 293.0
1165.0 315.0
1165.0 336.0
1165.0 357.0
1165.0 380.0
1172.0 31.0
1172.0 49.0
1172.0 67.0
1172.0 85.0
1172.0 103.0
1172.0 120.0
1172.0 138.0
1172.0 156.0
1172.0 176.0
1172.0 197.0
1172.0 219.0
1172.0 241.0
1172.0 264.0
1172.0 284.0
1172.0 305.0
1172.0 325.0
1172.0 345.0
1172.0 366.0
1172.0 386.0
1174.0 117.0
1174.0 310.0
1196.0 105.0
1196.0 211.0
1196.0 285.0
1196.0 360.0
1204.0 33.0
1204.0 52.0
1204.0 72.0
1204.0 91.0
1204.0 109.0
1204.0 127.0
1204.0 145.0
1204.0 163.0
1204.0 181.0
1204.0 199.0
1204.0 217.0
1204.0 235.0
1204.0 253.0
1204.0 271.0
1204.0 288.0
1204.0 306.0
1204.0 323.0
1204.0 343.0
1204.0 364.0
1204.0 385.0
1205.0 104.0
1205.0 176.0
1205.0 263.0
1205.0 344.0
1213.0 290.0
1222.0 32.0
1222.0 50.0
1222.0 67.0
1222.0 85.0
1222.0 101.0
1222.0 118.0
1222.0 135.0
1222.0 151.0
1222.0 169.0
1222.0 186.0
1222.0 203.0
1222.0 220.0
1222.0 238.0
1222.0 254.0
1222.0 271.0
1222.0 287.0
1222.0 303.0
1222.0 319.0
1222.0 338.0
1222.0 356.0
1222.0 376.0
1222.0 396.0
1223.0 301.0
1225.0 98.0
1225.0 210.0
1225.0 289.0
1226.0 31.0
1226.0 49.0
1226.0 66.0
1226.0 84.0
1226.0 100.0
1226.0 116.0
1226.0 133.0
1226.0 149.0
1226.0 165.0
1226.0 181.0
1226.0 199.0
1226.0 215.0
1226.0 232.0
1226.0 248.0
1226.0 266.0
1226.0 282.0
1226.0 297.0
1226.0 313.0
1226.0 330.0
1226.0 348.0
1226.0 366.0
1226.0 386.0
1236.0 303.0
1238.0 299.0
1240.0 134.0
1240.0 301.0
1241.0 107.0
1241.0 294.0
1243.0 98.0
1243.0 170.0
1243.0 274.0
1244.0 111.0
1244.0 193.0
1244.0 294.0
1244.0 390.0
1251.0 31.0
1251.0 49.0
1251.0 66.0
1251.0 83.0
1251.0 99.0
1251.0 115.0
1251.0 131.0
1251.0 147.0
1251.0 163.0
1251.0 183.0
1251.0 203.0
1251.0 224.0
1251.0 245.0
1251.0 266.0
1251.0 285.0
1251.0 304.0
1251.0 322.0
1251.0 341.0
1251.0 359.0
1251.0 379.0
1251.0 398.0
1252.0 89.0
1252.0 154.0
1252.0 353.0
1253.0 31.0
1253.0 51.0
1253.0 70.0
1253.0 90.0
1253.0 109.0
1253.0 129.0
1253.0 148.0
1253.0 168.0
1253.0 191.0
1253.0 215.0
1253.0 239.0
1253.0 265.0
1253.0 288.0
1253.0 311.0
1253.0 334.0
1253.0 357.0
1253.0 379.0
1254.0 32.0
1254.0 51.0
1254.0 69.0
1254.0 88.0
1254.0 105.0
1254.0 122.0
1254.0 139.0
1254.0 156.0
1254.0 173.0
1254.0 191.0
1254.0 209.0
1254.0 227.0
1254.0 245.0
1254.0 263.0
1254.0 280.0
1254.0 297.0
1254.0 314.0
1254.0 333.0
1254.0 353.0
1254.0 374.0
1254.0 394.0
1257.0 115.0
1257.0 294.0
1262.0 99.0
1262.0 153.0
1262.0 382.0
1263.0 304.0
1271.0 108.0
1271.0 397.0
1280.0 142.0
1300.0 109.0
1300.0 389.0
1305.0 109.0
1305.0 389.0
1337.0 31.0
1337.0 50.0
1337.0 69.0
1337.0 88.0
1337.0 105.0
1337.0 124.0
1337.0 142.0
1337.0 159.0
1337.0 177.0
1337.0 195.0
1337.0 213.0
1337.0 230.0
1337.0 248.0
1337.0 266.0
1337.0 283.0
1337.0 300.0
1337.0 317.0
1337.0 337.0
1337.0 358.0
1337.0 379.0
1337.0 400.0
1340.0 31.0
1340.0 50.0
1340.0 69.0
1340.0 87.0
1340.0 105.0
1340.0 122.0
1340.0 139.0
1340.0 157.0
1340.0 175.0
1340.0 192.0
1340.0 210.0
1340.0 228.0
1340.0 246.0
1340.0 265.0
1340.0 282.0
1340.0 298.0
1340.0 315.0
1340.0 334.0
1340.0 354.0
1340.0 375.0
1340.0 396.0
1345.0 31.0
1345.0 50.0
1345.0 69.0
1345.0 89.0
1345.0 107.0
1345.0 126.0
1345.0 144.0
1345.0 163.0
1345.0 182.0
1345.0 200.0
1345.0 219.0
1345.0 238.0
1345.0 256.0
1345.0 274.0
1345.0 292.0
1345.0 310.0
1345.0 330.0
1345.0 352.0
1345.0 373.0
1345.0 394.0
1355.0 92.0
1355.0 145.0
1355.0 251.0
1355.0 310.0
1365.0 312.0
1374.0 306.0
1381.0 112.0
1390.0 31.0
1390.0 49.0
1390.0 67.0
1390.0 86.0
1390.0 103.0
1390.0 120.0
1390.0 138.0
1390.0 155.0
1390.0 175.0
1390.0 196.0
1390.0 218.0
1390.0 240.0
1390.0 262.0
1390.0 283.0
1390.0 301.0
1390.0 320.0
1390.0 341.0
1390.0 362.0
1390.0 382.0
1404.0 33.0
1404.0 52.0
1404.0 70.0
1404.0 88.0
1404.0 107.0
1404.0 124.0
1404.0 142.0
1404.0 160.0
1404.0 181.0
1404.0 203.0
1404.0 226.0
1404.0 248.0
1404.0 271.0
1404.0 292.0
1404.0 312.0
1404.0 334.0
1404.0 356.0
1404.0 377.0
1404.0 398.0
1415.0 319.0
1417.0 33.0
1417.0 54.0
1417.0 75.0
1417.0 95.0
1417.0 114.0
1417.0 133.0
1417.0 153.0
1417.0 173.0
1417.0 192.0
1417.0 211.0
1417.0 229.0
1417.0 249.0
1417.0 269.0
1417.0 287.0
1417.0 306.0
1417.0 325.0
1417.0 346.0
1417.0 368.0
1417.0 391.0
1418.0 32.0
1418.0 51.0
1418.0 71.0
1418.0 90.0
1418.0 108.0
1418.0 127.0
1418.0 145.0
1418.0 163.0
1418.0 182.0
1418.0 201.0
1418.0 220.0
1418.0 239.0
1418.0 257.0
1418.0 275.0
1418.0 293.0
1418.0 311.0
1418.0 331.0
1418.0 352.0
1418.0 373.0
1418.0 395.0
1419.0 148.0
1419.0 294.0
1422.0 308.0
1423.0 31.0
1423.0 50.0
1423.0 70.0
1423.0 89.0
1423.0 107.0
1423.0 126.0
1423.0 144.0
1423.0 162.0
1423.0 181.0
1423.0 199.0
1423.0 217.0
1423.0 236.0
1423.0 254.0
1423.0 272.0
1423.0 289.0
1423.0 307.0
1423.0 325.0
1423.0 346.0
1423.0 368.0
1423.0 390.0
1433.0 98.0
1433.0 294.0
1434.0 299.0
1436.0 161.0
1436.0 308.0
1439.0 292.0
1442.0 6.0
1442.0 10.0
1442.0 13.0
1442.0 16.0
1442.0 19.0
1442.0 22.0
1442.0 25.0
1442.0 28.0
1442.0 31.0
1442.0 35.0
1442.0 38.0
1442.0 41.0
1442.0 44.0
1442.0 47.0
1442.0 51.0
1442.0 54.0
1442.0 57.0
1442.0 60.0
1442.0 63.0
1442.0 67.0
1442.0 70.0
1442.0 73.0
1442.0 76.0
1442.0 79.0
1442.0 83.0
1442.0 86.0
1442.0 89.0
1442.0 92.0
1442.0 95.0
1442.0 99.0
1442.0 102.0
1442.0 105.0
1442.0 108.0
1442.0 111.0
1442.0 115.0
1442.0 118.0
1442.0 121.0
1442.0 124.0
1442.0 127.0
1442.0 131.0
1442.0 134.0
1442.0 137.0
1442.0 140.0
1442.0 143.0
1442.0 147.0
1442.0 150.0
1442.0 153.0
1442.0 156.0
1442.0 159.0
1442.0 163.0
1442.0 166.0
1442.0 169.0
1442.0 172.0
1442.0 175.0
1442.0 179.0
1442.0 182.0
1442.0 185.0
1442.0 188.0
1442.0 191.0
1442.0 195.0
1442.0 198.0
1442.0 201.0
1442.0 204.0
1442.0 207.0
1442.0 211.0
1442.0 214.0
1442.0 217.0
1442.0 220.0
1442.0 223.0
1442.0 227.0
1442.0 230.0
1442.0 233.0
1442.0 236.0
1442.0 239.0
1442.0 243.0
1442.0 246.0
1442.0 249.0
1442.0 252.0
1442.0 256.0
1442.0 259.0
1442.0 262.0
1442.0 265.0
1442.0 268.0
1442.0 271.0
1442.0 274.0
1442.0 277.0
1442.0 280.0
1442.0 283.0
1442.0 286.0
1442.0 289.0
1442.0 292.0
1442.0 295.0
1442.0 298.0
1442.0 301.0
1442.0 304.0
1442.0 307.0
1442.0 310.0
1442.0 313.0
1442.0 316.0
1442.0 320.0
1442.0 324.0
1442.0 328.0
1442.0 331.0
1442.0 335.0
1442.0 339.0
1442.0 343.0
1442.0 347.0
1442.0 351.0
1442.0 355.0
1442.0 359.0
1442.0 363.0
1442.0 367.0
1442.0 371.0
1442.0 375.0
1442.0 379.0
1442.0 383.0
1442.0 387.0
1442.0 391.0
1442.0 396.0
1445.0 296.0
1446.0 111.0
1446.0 287.0
