14.0 79.0
14.0 127.0
14.0 160.0
26.0 9.0
26.0 15.0
26.0 21.0
26.0 28.0
26.0 36.0
26.0 44.0
26.0 52.0
26.0 60.0
26.0 68.0
26.0 76.0
26.0 84.0
26.0 92.0
26.0 100.0
26.0 108.0
26.0 116.0
26.0 124.0
26.0 132.0
26.0 140.0
26.0 148.0
26.0 156.0
26.0 165.0
62.0 75.0
62.0 124.0
62.0 157.0
77.0 172.0
87.0 79.0
87.0 128.0
87.0 163.0
112.0 47.0
112.0 85.0
112.0 121.0
112.0 151.0
121.0 170.0
129.0 50.0
129.0 89.0
129.0 128.0
129.0 163.0
157.0 78.0
157.0 130.0
157.0 165.0
159.0 75.0
159.0 125.0
159.0 158.0
165.0 123.0
165.0 171.0
166.0 78.0
166.0 129.0
166.0 162.0
167.0 85.0
167.0 134.0
167.0 171.0
185.0 64.0
185.0 112.0
185.0 144.0
185.0 177.0
195.0 168.0
217.0 47.0
217.0 82.0
217.0 116.0
217.0 148.0
217.0 184.0
224.0 47.0
224.0 79.0
224.0 110.0
224.0 141.0
224.0 168.0
227.0 48.0
227.0 87.0
227.0 127.0
227.0 159.0
232.0 47.0
232.0 79.0
232.0 109.0
232.0 137.0
232.0 164.0
235.0 153.0
241.0 45.0
241.0 76.0
241.0 105.0
241.0 134.0
241.0 159.0
241.0 208.0
258.0 49.0
258.0 84.0
258.0 121.0
258.0 153.0
259.0 49.0
259.0 90.0
259.0 129.0
259.0 162.0
286.0 75.0
286.0 130.0
286.0 162.0
296.0 59.0
296.0 99.0
296.0 132.0
296.0 161.0
303.0 60.0
303.0 102.0
303.0 137.0
303.0 163.0
306.0 77.0
306.0 128.0
306.0 160.0
328.0 48.0
328.0 89.0
328.0 128.0
328.0 161.0
334.0 47.0
334.0 80.0
334.0 112.0
334.0 142.0
334.0 170.0
344.0 171.0
347.0 29.0
347.0 46.0
347.0 62.0
347.0 78.0
347.0 94.0
347.0 109.0
347.0 125.0
347.0 139.0
347.0 152.0
347.0 166.0
347.0 180.0
347.0 197.0
347.0 216.0
347.0 238.0
347.0 259.0
347.0 280.0
347.0 301.0
347.0 323.0
347.0 347.0
347.0 375.0
355.0 177.0
366.0 45.0
366.0 77.0
366.0 108.0
366.0 137.0
366.0 164.0
368.0 154.0
375.0 161.0
377.0 152.0
382.0 51.0
382.0 93.0
382.0 132.0
382.0 170.0
383.0 145.0
407.0 174.0
407.0 304.0
426.0 168.0
428.0 68.0
428.0 116.0
428.0 148.0
428.0 180.0
434.0 67.0
434.0 121.0
434.0 154.0
434.0 279.0
434.0 400.0
435.0 66.0
435.0 116.0
435.0 147.0
435.0 179.0
438.0 187.0
445.0 153.0
445.0 286.0
449.0 142.0
449.0 190.0
450.0 58.0
450.0 106.0
450.0 140.0
450.0 170.0
456.0 37.0
456.0 60.0
456.0 82.0
456.0 103.0
456.0 124.0
456.0 142.0
456.0 160.0
456.0 177.0
456.0 194.0
456.0 212.0
456.0 233.0
456.0 254.0
456.0 275.0
456.0 296.0
456.0 318.0
456.0 343.0
456.0 369.0
456.0 394.0
466.0 98.0
466.0 150.0
466.0 204.0
468.0 144.0
468.0 192.0
474.0 154.0
475.0 99.0
475.0 158.0
476.0 151.0
476.0 277.0
477.0 90.0
477.0 136.0
477.0 170.0
478.0 149.0
487.0 49.0
487.0 89.0
487.0 127.0
487.0 158.0
493.0 157.0
496.0 165.0
502.0 184.0
504.0 162.0
513.0 177.0
547.0 155.0
547.0 284.0
558.0 66.0
558.0 109.0
558.0 141.0
558.0 171.0
558.0 279.0
568.0 182.0
568.0 301.0
580.0 91.0
580.0 138.0
580.0 173.0
581.0 176.0
588.0 161.0
588.0 299.0
589.0 144.0
589.0 207.0
591.0 35.0
591.0 56.0
591.0 77.0
591.0 97.0
591.0 116.0
591.0 134.0
591.0 150.0
591.0 165.0
591.0 181.0
591.0 197.0
591.0 214.0
591.0 232.0
591.0 251.0
591.0 270.0
591.0 289.0
591.0 308.0
591.0 329.0
591.0 352.0
591.0 373.0
591.0 395.0
598.0 165.0
599.0 29.0
599.0 45.0
599.0 62.0
599.0 78.0
599.0 93.0
599.0 109.0
599.0 125.0
599.0 138.0
599.0 152.0
599.0 165.0
599.0 179.0
599.0 197.0
599.0 214.0
599.0 234.0
599.0 255.0
599.0 275.0
599.0 295.0
599.0 317.0
599.0 341.0
599.0 367.0
599.0 390.0
600.0 179.0
601.0 143.0
601.0 194.0
605.0 43.0
605.0 75.0
605.0 105.0
605.0 134.0
605.0 162.0
607.0 66.0
607.0 113.0
607.0 146.0
607.0 172.0
612.0 133.0
612.0 181.0
613.0 143.0
615.0 157.0
623.0 44.0
623.0 78.0
623.0 114.0
623.0 146.0
623.0 178.0
625.0 129.0
625.0 183.0
628.0 175.0
631.0 175.0
632.0 43.0
632.0 75.0
632.0 107.0
632.0 136.0
632.0 162.0
638.0 171.0
641.0 157.0
671.0 143.0
671.0 186.0
671.0 237.0
671.0 281.0
671.0 338.0
671.0 386.0
677.0 157.0
677.0 214.0
677.0 280.0
677.0 347.0
679.0 142.0
679.0 182.0
679.0 263.0
679.0 356.0
680.0 6.0
680.0 10.0
680.0 14.0
680.0 18.0
680.0 22.0
680.0 26.0
680.0 30.0
680.0 34.0
680.0 38.0
680.0 42.0
680.0 46.0
680.0 50.0
680.0 54.0
680.0 58.0
680.0 62.0
680.0 66.0
680.0 70.0
680.0 73.0
680.0 77.0
680.0 81.0
680.0 84.0
680.0 88.0
680.0 92.0
680.0 96.0
680.0 100.0
680.0 103.0
680.0 107.0
680.0 111.0
680.0 114.0
680.0 118.0
680.0 121.0
680.0 124.0
680.0 127.0
680.0 130.0
680.0 133.0
680.0 136.0
680.0 139.0
680.0 142.0
680.0 145.0
680.0 148.0
680.0 151.0
680.0 154.0
680.0 157.0
680.0 160.0
680.0 163.0
680.0 166.0
680.0 169.0
680.0 172.0
680.0 175.0
680.0 178.0
680.0 181.0
680.0 184.0
680.0 187.0
680.0 190.0
680.0 193.0
680.0 196.0
680.0 199.0
680.0 202.0
680.0 205.0
680.0 208.0
680.0 211.0
680.0 214.0
680.0 217.0
680.0 220.0
680.0 223.0
680.0 226.0
680.0 229.0
680.0 232.0
680.0 235.0
680.0 238.0
680.0 241.0
680.0 244.0
680.0 247.0
680.0 250.0
680.0 253.0
680.0 256.0
680.0 259.0
680.0 262.0
680.0 265.0
680.0 268.0
680.0 271.0
680.0 274.0
680.0 277.0
680.0 280.0
680.0 283.0
680.0 286.0
680.0 289.0
680.0 292.0
680.0 295.0
680.0 298.0
680.0 301.0
680.0 304.0
680.0 307.0
680.0 310.0
680.0 313.0
680.0 316.0
680.0 319.0
680.0 322.0
680.0 325.0
680.0 328.0
680.0 331.0
680.0 334.0
680.0 337.0
680.0 340.0
680.0 343.0
680.0 346.0
680.0 349.0
680.0 352.0
680.0 355.0
680.0 358.0
680.0 361.0
680.0 364.0
680.0 367.0
680.0 370.0
680.0 373.0
680.0 376.0
680.0 379.0
680.0 382.0
680.0 385.0
680.0 388.0
680.0 391.0
680.0 394.0
680.0 397.0
687.0 175.0
695.0 158.0
695.0 263.0
695.0 368.0
696.0 50.0
696.0 85.0
696.0 118.0
696.0 149.0
698.0 153.0
698.0 213.0
698.0 276.0
698.0 360.0
704.0 144.0
704.0 205.0
704.0 266.0
704.0 364.0
705.0 159.0
705.0 258.0
705.0 348.0
707.0 163.0
707.0 253.0
708.0 51.0
708.0 98.0
708.0 139.0
708.0 172.0
709.0 66.0
709.0 106.0
709.0 139.0
709.0 168.0
709.0 290.0
714.0 37.0
714.0 58.0
714.0 79.0
714.0 99.0
714.0 119.0
714.0 137.0
714.0 154.0
714.0 170.0
714.0 186.0
714.0 203.0
714.0 220.0
714.0 237.0
714.0 253.0
714.0 268.0
714.0 284.0
714.0 300.0
714.0 316.0
714.0 332.0
714.0 348.0
714.0 364.0
714.0 381.0
714.0 398.0
716.0 166.0
717.0 158.0
717.0 215.0
717.0 282.0
717.0 365.0
718.0 66.0
718.0 108.0
718.0 140.0
718.0 168.0
719.0 159.0
719.0 238.0
719.0 290.0
719.0 358.0
725.0 34.0
725.0 51.0
725.0 67.0
725.0 85.0
725.0 101.0
725.0 118.0
725.0 135.0
725.0 152.0
725.0 169.0
725.0 184.0
725.0 200.0
725.0 217.0
725.0 236.0
725.0 256.0
725.0 274.0
725.0 292.0
725.0 313.0
725.0 335.0
725.0 358.0
725.0 379.0
726.0 141.0
726.0 195.0
729.0 269.0
729.0 358.0
734.0 44.0
734.0 76.0
734.0 106.0
734.0 135.0
734.0 160.0
734.0 265.0
734.0 358.0
735.0 32.0
735.0 50.0
735.0 67.0
735.0 85.0
735.0 103.0
735.0 120.0
735.0 137.0
735.0 153.0
735.0 169.0
735.0 185.0
735.0 202.0
735.0 221.0
735.0 241.0
735.0 262.0
735.0 281.0
735.0 299.0
735.0 321.0
735.0 344.0
735.0 367.0
735.0 391.0
736.0 34.0
736.0 56.0
736.0 77.0
736.0 96.0
736.0 115.0
736.0 134.0
736.0 150.0
736.0 166.0
736.0 181.0
736.0 198.0
736.0 217.0
736.0 237.0
736.0 258.0
736.0 278.0
736.0 298.0
736.0 321.0
736.0 346.0
736.0 370.0
736.0 394.0
738.0 37.0
738.0 60.0
738.0 82.0
738.0 103.0
738.0 124.0
738.0 143.0
738.0 161.0
738.0 179.0
738.0 197.0
738.0 215.0
738.0 233.0
738.0 251.0
738.0 268.0
738.0 286.0
738.0 303.0
738.0 320.0
738.0 338.0
738.0 356.0
738.0 374.0
738.0 392.0
743.0 163.0
744.0 45.0
744.0 77.0
744.0 109.0
744.0 141.0
744.0 171.0
745.0 46.0
745.0 82.0
745.0 117.0
745.0 147.0
745.0 181.0
751.0 154.0
754.0 149.0
762.0 91.0
762.0 149.0
763.0 6.0
763.0 10.0
763.0 13.0
763.0 16.0
763.0 19.0
763.0 22.0
763.0 25.0
763.0 28.0
763.0 31.0
763.0 35.0
763.0 38.0
763.0 41.0
763.0 44.0
763.0 47.0
763.0 51.0
763.0 54.0
763.0 57.0
763.0 60.0
763.0 63.0
763.0 67.0
763.0 70.0
763.0 73.0
763.0 76.0
763.0 79.0
763.0 83.0
763.0 86.0
763.0 89.0
763.0 92.0
763.0 95.0
763.0 99.0
763.0 102.0
763.0 105.0
763.0 108.0
763.0 111.0
763.0 115.0
763.0 118.0
763.0 121.0
763.0 124.0
763.0 127.0
763.0 130.0
763.0 133.0
763.0 136.0
763.0 139.0
763.0 142.0
763.0 145.0
763.0 148.0
763.0 151.0
763.0 154.0
763.0 157.0
763.0 160.0
763.0 163.0
763.0 166.0
763.0 169.0
763.0 172.0
763.0 175.0
763.0 178.0
763.0 181.0
763.0 184.0
763.0 187.0
763.0 190.0
763.0 193.0
763.0 196.0
763.0 199.0
763.0 202.0
763.0 206.0
763.0 210.0
763.0 214.0
763.0 218.0
763.0 222.0
763.0 226.0
763.0 230.0
763.0 234.0
763.0 238.0
763.0 242.0
763.0 246.0
763.0 250.0
763.0 254.0
763.0 258.0
763.0 262.0
763.0 266.0
763.0 270.0
763.0 274.0
763.0 278.0
763.0 282.0
763.0 286.0
763.0 290.0
763.0 294.0
763.0 299.0
763.0 303.0
763.0 308.0
763.0 312.0
763.0 317.0
763.0 322.0
763.0 327.0
763.0 332.0
763.0 337.0
763.0 343.0
763.0 349.0
763.0 355.0
763.0 361.0
763.0 366.0
763.0 371.0
763.0 376.0
763.0 381.0
763.0 386.0
763.0 391.0
763.0 399.0
801.0 144.0
801.0 196.0
801.0 262.0
801.0 327.0
801.0 393.0
805.0 265.0
805.0 383.0
807.0 170.0
811.0 183.0
819.0 180.0
819.0 292.0
827.0 141.0
827.0 196.0
827.0 243.0
827.0 290.0
827.0 342.0
827.0 393.0
832.0 182.0
832.0 285.0
833.0 163.0
837.0 158.0
837.0 241.0
837.0 323.0
837.0 386.0
839.0 156.0
839.0 245.0
839.0 332.0
841.0 37.0
841.0 63.0
841.0 87.0
841.0 111.0
841.0 133.0
841.0 152.0
841.0 172.0
841.0 190.0
841.0 210.0
841.0 235.0
841.0 260.0
841.0 283.0
841.0 310.0
841.0 339.0
841.0 372.0
842.0 36.0
842.0 62.0
842.0 85.0
842.0 110.0
842.0 131.0
842.0 150.0
842.0 169.0
842.0 188.0
842.0 207.0
842.0 227.0
842.0 247.0
842.0 266.0
842.0 285.0
842.0 304.0
842.0 323.0
842.0 342.0
842.0 361.0
842.0 380.0
842.0 399.0
843.0 36.0
843.0 57.0
843.0 78.0
843.0 99.0
843.0 121.0
843.0 139.0
843.0 157.0
843.0 174.0
843.0 190.0
843.0 209.0
843.0 229.0
843.0 252.0
843.0 274.0
843.0 296.0
843.0 319.0
843.0 346.0
843.0 373.0
843.0 400.0
847.0 166.0
847.0 264.0
847.0 364.0
850.0 139.0
850.0 249.0
850.0 382.0
851.0 85.0
851.0 148.0
851.0 193.0
851.0 243.0
851.0 285.0
851.0 331.0
851.0 379.0
852.0 36.0
852.0 58.0
852.0 79.0
852.0 99.0
852.0 119.0
852.0 137.0
852.0 154.0
852.0 170.0
852.0 186.0
852.0 202.0
852.0 220.0
852.0 236.0
852.0 253.0
852.0 270.0
852.0 287.0
852.0 304.0
852.0 321.0
852.0 338.0
852.0 355.0
852.0 372.0
852.0 389.0
857.0 36.0
857.0 56.0
857.0 77.0
857.0 95.0
857.0 113.0
857.0 131.0
857.0 147.0
857.0 162.0
857.0 176.0
857.0 191.0
857.0 207.0
857.0 223.0
857.0 239.0
857.0 254.0
857.0 269.0
857.0 285.0
857.0 301.0
857.0 317.0
857.0 333.0
857.0 349.0
857.0 365.0
857.0 381.0
857.0 397.0
859.0 159.0
860.0 34.0
860.0 55.0
860.0 75.0
860.0 93.0
860.0 112.0
860.0 130.0
860.0 146.0
860.0 161.0
860.0 176.0
860.0 191.0
860.0 207.0
860.0 225.0
860.0 243.0
860.0 262.0
860.0 279.0
860.0 297.0
860.0 317.0
860.0 337.0
860.0 359.0
860.0 381.0
861.0 35.0
861.0 58.0
861.0 81.0
861.0 103.0
861.0 124.0
861.0 142.0
861.0 159.0
861.0 175.0
861.0 192.0
861.0 211.0
861.0 234.0
861.0 255.0
861.0 278.0
861.0 300.0
861.0 326.0
861.0 354.0
861.0 381.0
863.0 175.0
863.0 268.0
863.0 389.0
864.0 165.0
864.0 304.0
866.0 26.0
866.0 38.0
866.0 50.0
866.0 62.0
866.0 75.0
866.0 87.0
866.0 99.0
866.0 111.0
866.0 123.0
866.0 134.0
866.0 145.0
866.0 155.0
866.0 166.0
866.0 176.0
866.0 187.0
866.0 197.0
866.0 207.0
866.0 219.0
866.0 231.0
866.0 243.0
866.0 255.0
866.0 267.0
866.0 279.0
866.0 291.0
866.0 303.0
866.0 315.0
866.0 327.0
866.0 339.0
866.0 352.0
866.0 364.0
866.0 376.0
866.0 388.0
870.0 131.0
870.0 184.0
872.0 178.0
875.0 185.0
880.0 34.0
880.0 53.0
880.0 70.0
880.0 89.0
880.0 107.0
880.0 125.0
880.0 142.0
880.0 159.0
880.0 176.0
880.0 192.0
880.0 209.0
880.0 230.0
880.0 250.0
880.0 270.0
880.0 290.0
880.0 310.0
880.0 333.0
880.0 358.0
880.0 383.0
881.0 154.0
883.0 163.0
886.0 152.0
889.0 158.0
893.0 178.0
894.0 149.0
903.0 177.0
941.0 36.0
941.0 61.0
941.0 84.0
941.0 107.0
941.0 129.0
941.0 148.0
941.0 168.0
941.0 188.0
941.0 208.0
941.0 227.0
941.0 246.0
941.0 265.0
941.0 283.0
941.0 302.0
941.0 322.0
941.0 340.0
941.0 359.0
941.0 377.0
941.0 395.0
942.0 177.0
942.0 264.0
942.0 348.0
949.0 35.0
949.0 56.0
949.0 76.0
949.0 95.0
949.0 114.0
949.0 131.0
949.0 147.0
949.0 163.0
949.0 179.0
949.0 195.0
949.0 211.0
949.0 227.0
949.0 243.0
949.0 259.0
949.0 275.0
949.0 291.0
949.0 307.0
949.0 323.0
949.0 339.0
949.0 355.0
949.0 371.0
949.0 387.0
950.0 35.0
950.0 59.0
950.0 81.0
950.0 104.0
950.0 126.0
950.0 145.0
950.0 162.0
950.0 179.0
950.0 197.0
950.0 216.0
950.0 234.0
950.0 252.0
950.0 269.0
950.0 285.0
950.0 302.0
950.0 320.0
950.0 338.0
950.0 356.0
950.0 372.0
950.0 389.0
951.0 158.0
951.0 246.0
951.0 318.0
951.0 388.0
953.0 179.0
953.0 271.0
953.0 356.0
959.0 36.0
959.0 60.0
959.0 82.0
959.0 105.0
959.0 126.0
959.0 145.0
959.0 162.0
959.0 180.0
959.0 198.0
959.0 217.0
959.0 235.0
959.0 253.0
959.0 270.0
959.0 287.0
959.0 306.0
959.0 324.0
959.0 342.0
959.0 360.0
959.0 378.0
959.0 396.0
960.0 159.0
960.0 222.0
960.0 306.0
965.0 149.0
965.0 273.0
965.0 357.0
971.0 184.0
973.0 34.0
973.0 55.0
973.0 76.0
973.0 96.0
973.0 116.0
973.0 134.0
973.0 152.0
973.0 168.0
973.0 185.0
973.0 203.0
973.0 221.0
973.0 238.0
973.0 255.0
973.0 271.0
973.0 287.0
973.0 303.0
973.0 320.0
973.0 337.0
973.0 353.0
973.0 369.0
973.0 386.0
975.0 191.0
975.0 271.0
975.0 376.0
981.0 157.0
981.0 218.0
981.0 283.0
981.0 358.0
985.0 96.0
985.0 157.0
985.0 221.0
985.0 285.0
985.0 353.0
989.0 142.0
989.0 197.0
991.0 35.0
991.0 56.0
991.0 77.0
991.0 97.0
991.0 118.0
991.0 135.0
991.0 153.0
991.0 170.0
991.0 187.0
991.0 203.0
991.0 220.0
991.0 236.0
991.0 253.0
991.0 269.0
991.0 285.0
991.0 301.0
991.0 318.0
991.0 334.0
991.0 351.0
991.0 367.0
991.0 383.0
991.0 400.0
992.0 144.0
994.0 152.0
997.0 255.0
997.0 352.0
998.0 262.0
998.0 357.0
1001.0 32.0
1001.0 51.0
1001.0 71.0
1001.0 91.0
1001.0 110.0
1001.0 129.0
1001.0 147.0
1001.0 164.0
1001.0 182.0
1001.0 199.0
1001.0 219.0
1001.0 240.0
1001.0 261.0
1001.0 281.0
1001.0 302.0
1001.0 326.0
1001.0 353.0
1001.0 378.0
1003.0 175.0
1010.0 166.0
1012.0 31.0
1012.0 50.0
1012.0 68.0
1012.0 87.0
1012.0 105.0
1012.0 124.0
1012.0 142.0
1012.0 158.0
1012.0 175.0
1012.0 193.0
1012.0 211.0
1012.0 232.0
1012.0 253.0
1012.0 274.0
1012.0 294.0
1012.0 316.0
1012.0 340.0
1012.0 366.0
1012.0 389.0
1014.0 151.0
1016.0 34.0
1016.0 53.0
1016.0 73.0
1016.0 93.0
1016.0 113.0
1016.0 132.0
1016.0 151.0
1016.0 170.0
1016.0 190.0
1016.0 209.0
1016.0 232.0
1016.0 255.0
1016.0 277.0
1016.0 300.0
1016.0 325.0
1016.0 351.0
1016.0 379.0
1018.0 143.0
1018.0 194.0
1021.0 162.0
1022.0 154.0
1031.0 138.0
1038.0 32.0
1038.0 50.0
1038.0 68.0
1038.0 86.0
1038.0 105.0
1038.0 124.0
1038.0 141.0
1038.0 158.0
1038.0 175.0
1038.0 192.0
1038.0 210.0
1038.0 230.0
1038.0 250.0
1038.0 271.0
1038.0 291.0
1038.0 312.0
1038.0 335.0
1038.0 360.0
1038.0 384.0
1067.0 182.0
1067.0 277.0
1068.0 35.0
1068.0 57.0
1068.0 79.0
1068.0 101.0
1068.0 122.0
1068.0 140.0
1068.0 158.0
1068.0 176.0
1068.0 194.0
1068.0 212.0
1068.0 230.0
1068.0 247.0
1068.0 265.0
1068.0 282.0
1068.0 299.0
1068.0 316.0
1068.0 334.0
1068.0 352.0
1068.0 370.0
1068.0 387.0
1075.0 36.0
1075.0 59.0
1075.0 82.0
1075.0 105.0
1075.0 127.0
1075.0 146.0
1075.0 165.0
1075.0 182.0
1075.0 201.0
1075.0 219.0
1075.0 237.0
1075.0 256.0
1075.0 274.0
1075.0 292.0
1075.0 310.0
1075.0 328.0
1075.0 347.0
1075.0 365.0
1075.0 383.0
1084.0 166.0
1084.0 226.0
1084.0 288.0
1084.0 352.0
1087.0 36.0
1087.0 60.0
1087.0 81.0
1087.0 103.0
1087.0 124.0
1087.0 142.0
1087.0 161.0
1087.0 178.0
1087.0 196.0
1087.0 214.0
1087.0 232.0
1087.0 250.0
1087.0 268.0
1087.0 286.0
1087.0 303.0
1087.0 321.0
1087.0 339.0
1087.0 357.0
1087.0 375.0
1087.0 393.0
1088.0 36.0
1088.0 59.0
1088.0 81.0
1088.0 104.0
1088.0 126.0
1088.0 145.0
1088.0 164.0
1088.0 183.0
1088.0 203.0
1088.0 222.0
1088.0 241.0
1088.0 259.0
1088.0 276.0
1088.0 294.0
1088.0 313.0
1088.0 331.0
1088.0 349.0
1088.0 367.0
1088.0 385.0
1105.0 34.0
1105.0 54.0
1105.0 74.0
1105.0 93.0
1105.0 112.0
1105.0 130.0
1105.0 146.0
1105.0 162.0
1105.0 178.0
1105.0 193.0
1105.0 208.0
1105.0 224.0
1105.0 240.0
1105.0 255.0
1105.0 270.0
1105.0 285.0
1105.0 300.0
1105.0 315.0
1105.0 330.0
1105.0 346.0
1105.0 362.0
1105.0 377.0
1105.0 393.0
1106.0 261.0
1106.0 363.0
1107.0 200.0
1107.0 395.0
1110.0 188.0
1110.0 293.0
1114.0 35.0
1114.0 57.0
1114.0 78.0
1114.0 98.0
1114.0 118.0
1114.0 136.0
1114.0 153.0
1114.0 170.0
1114.0 186.0
1114.0 204.0
1114.0 222.0
1114.0 240.0
1114.0 257.0
1114.0 274.0
1114.0 291.0
1114.0 307.0
1114.0 324.0
1114.0 341.0
1114.0 358.0
1114.0 375.0
1114.0 392.0
1115.0 166.0
1115.0 244.0
1115.0 349.0
1117.0 165.0
1117.0 267.0
1117.0 363.0
1118.0 35.0
1118.0 59.0
1118.0 81.0
1118.0 103.0
1118.0 124.0
1118.0 143.0
1118.0 161.0
1118.0 179.0
1118.0 197.0
1118.0 216.0
1118.0 234.0
1118.0 252.0
1118.0 269.0
1118.0 287.0
1118.0 305.0
1118.0 324.0
1118.0 342.0
1118.0 360.0
1118.0 378.0
1118.0 395.0
1127.0 214.0
1133.0 202.0
1134.0 141.0
1134.0 189.0
1135.0 36.0
1135.0 60.0
1135.0 84.0
1135.0 107.0
1135.0 129.0
1135.0 149.0
1135.0 169.0
1135.0 188.0
1135.0 206.0
1135.0 225.0
1135.0 244.0
1135.0 263.0
1135.0 281.0
1135.0 299.0
1135.0 317.0
1135.0 335.0
1135.0 353.0
1135.0 371.0
1135.0 389.0
1144.0 159.0
1148.0 142.0
1148.0 185.0
1156.0 31.0
1156.0 50.0
1156.0 69.0
1156.0 88.0
1156.0 107.0
1156.0 125.0
1156.0 144.0
1156.0 161.0
1156.0 179.0
1156.0 197.0
1156.0 217.0
1156.0 238.0
1156.0 260.0
1156.0 281.0
1156.0 302.0
1156.0 326.0
1156.0 353.0
1156.0 379.0
1163.0 366.0
1165.0 31.0
1165.0 50.0
1165.0 69.0
1165.0 89.0
1165.0 109.0
1165.0 129.0
1165.0 148.0
1165.0 166.0
1165.0 184.0
1165.0 204.0
1165.0 226.0
1165.0 248.0
1165.0 270.0
1165.0 292.0
1165.0 315.0
1165.0 340.0
1165.0 369.0
1165.0 394.0
1172.0 31.0
1172.0 49.0
1172.0 68.0
1172.0 87.0
1172.0 107.0
1172.0 126.0
1172.0 143.0
1172.0 161.0
1172.0 179.0
1172.0 196.0
1172.0 215.0
1172.0 236.0
1172.0 258.0
1172.0 279.0
1172.0 300.0
1172.0 323.0
1172.0 347.0
1172.0 373.0
1172.0 396.0
1174.0 166.0
1174.0 268.0
1196.0 186.0
1196.0 264.0
1196.0 339.0
1204.0 36.0
1204.0 60.0
1204.0 82.0
1204.0 105.0
1204.0 126.0
1204.0 145.0
1204.0 163.0
1204.0 181.0
1204.0 199.0
1204.0 218.0
1204.0 236.0
1204.0 254.0
1204.0 272.0
1204.0 289.0
1204.0 306.0
1204.0 324.0
1204.0 342.0
1204.0 359.0
1204.0 377.0
1204.0 395.0
1205.0 176.0
1205.0 267.0
1205.0 353.0
1213.0 269.0
1213.0 377.0
1222.0 36.0
1222.0 58.0
1222.0 79.0
1222.0 99.0
1222.0 120.0
1222.0 138.0
1222.0 155.0
1222.0 173.0
1222.0 190.0
1222.0 208.0
1222.0 226.0
1222.0 243.0
1222.0 260.0
1222.0 276.0
1222.0 293.0
1222.0 310.0
1222.0 327.0
1222.0 344.0
1222.0 361.0
1222.0 377.0
1222.0 393.0
1223.0 275.0
1223.0 389.0
1225.0 163.0
1225.0 229.0
1225.0 285.0
1225.0 359.0
1226.0 35.0
1226.0 56.0
1226.0 77.0
1226.0 96.0
1226.0 116.0
1226.0 134.0
1226.0 150.0
1226.0 167.0
1226.0 183.0
1226.0 200.0
1226.0 217.0
1226.0 233.0
1226.0 249.0
1226.0 266.0
1226.0 283.0
1226.0 299.0
1226.0 315.0
1226.0 332.0
1226.0 349.0
1226.0 365.0
1226.0 382.0
1226.0 398.0
1236.0 258.0
1236.0 343.0
1238.0 268.0
1238.0 373.0
1241.0 159.0
1241.0 231.0
1241.0 303.0
1241.0 396.0
1243.0 128.0
1243.0 188.0
1243.0 259.0
1243.0 334.0
1243.0 398.0
1244.0 175.0
1244.0 273.0
1251.0 31.0
1251.0 49.0
1251.0 67.0
1251.0 85.0
1251.0 103.0
1251.0 121.0
1251.0 139.0
1251.0 156.0
1251.0 173.0
1251.0 189.0
1251.0 206.0
1251.0 225.0
1251.0 245.0
1251.0 264.0
1251.0 284.0
1251.0 304.0
1251.0 327.0
1251.0 351.0
1251.0 376.0
1251.0 399.0
1252.0 139.0
1253.0 31.0
1253.0 51.0
1253.0 72.0
1253.0 93.0
1253.0 113.0
1253.0 134.0
1253.0 153.0
1253.0 173.0
1253.0 192.0
1253.0 212.0
1253.0 236.0
1253.0 259.0
1253.0 283.0
1253.0 308.0
1253.0 334.0
1253.0 363.0
1253.0 391.0
1254.0 35.0
1254.0 58.0
1254.0 80.0
1254.0 100.0
1254.0 121.0
1254.0 140.0
1254.0 158.0
1254.0 175.0
1254.0 193.0
1254.0 211.0
1254.0 229.0
1254.0 247.0
1254.0 265.0
1254.0 282.0
1254.0 299.0
1254.0 316.0
1254.0 334.0
1254.0 352.0
1254.0 370.0
1254.0 388.0
1257.0 170.0
1257.0 276.0
1257.0 377.0
1262.0 156.0
1263.0 259.0
1263.0 338.0
1271.0 160.0
1300.0 163.0
1305.0 172.0
1337.0 34.0
1337.0 57.0
1337.0 79.0
1337.0 100.0
1337.0 121.0
1337.0 140.0
1337.0 158.0
1337.0 175.0
1337.0 194.0
1337.0 212.0
1337.0 229.0
1337.0 246.0
1337.0 263.0
1337.0 281.0
1337.0 298.0
1337.0 315.0
1337.0 332.0
1337.0 349.0
1337.0 367.0
1337.0 385.0
1340.0 34.0
1340.0 56.0
1340.0 78.0
1340.0 99.0
1340.0 120.0
1340.0 138.0
1340.0 156.0
1340.0 174.0
1340.0 192.0
1340.0 210.0
1340.0 228.0
1340.0 245.0
1340.0 262.0
1340.0 279.0
1340.0 296.0
1340.0 313.0
1340.0 330.0
1340.0 347.0
1340.0 364.0
1340.0 381.0
1340.0 398.0
1345.0 34.0
1345.0 57.0
1345.0 79.0
1345.0 102.0
1345.0 124.0
1345.0 142.0
1345.0 161.0
1345.0 179.0
1345.0 197.0
1345.0 216.0
1345.0 234.0
1345.0 252.0
1345.0 270.0
1345.0 288.0
1345.0 306.0
1345.0 324.0
1345.0 342.0
1345.0 360.0
1345.0 378.0
1345.0 396.0
1355.0 114.0
1355.0 193.0
1355.0 262.0
1355.0 331.0
1365.0 267.0
1374.0 283.0
1374.0 387.0
1388.0 274.0
1390.0 31.0
1390.0 50.0
1390.0 69.0
1390.0 89.0
1390.0 108.0
1390.0 127.0
1390.0 145.0
1390.0 163.0
1390.0 180.0
1390.0 197.0
1390.0 215.0
1390.0 236.0
1390.0 256.0
1390.0 275.0
1390.0 295.0
1390.0 317.0
1390.0 340.0
1390.0 367.0
1390.0 391.0
1398.0 162.0
1404.0 33.0
1404.0 52.0
1404.0 72.0
1404.0 92.0
1404.0 111.0
1404.0 130.0
1404.0 148.0
1404.0 166.0
1404.0 184.0
1404.0 202.0
1404.0 223.0
1404.0 244.0
1404.0 265.0
1404.0 286.0
1404.0 308.0
1404.0 333.0
1404.0 360.0
1404.0 386.0
1415.0 321.0
1417.0 36.0
1417.0 61.0
1417.0 85.0
1417.0 109.0
1417.0 131.0
1417.0 151.0
1417.0 170.0
1417.0 189.0
1417.0 209.0
1417.0 228.0
1417.0 247.0
1417.0 266.0
1417.0 285.0
1417.0 304.0
1417.0 323.0
1417.0 342.0
1417.0 361.0
1417.0 380.0
1417.0 399.0
1418.0 36.0
1418.0 60.0
1418.0 83.0
1418.0 106.0
1418.0 128.0
1418.0 147.0
1418.0 166.0
1418.0 185.0
1418.0 204.0
1418.0 223.0
1418.0 241.0
1418.0 259.0
1418.0 277.0
1418.0 295.0
1418.0 314.0
1418.0 332.0
1418.0 350.0
1418.0 368.0
1418.0 386.0
1419.0 209.0
1419.0 277.0
1419.0 351.0
1420.0 365.0
1422.0 265.0
1423.0 35.0
1423.0 58.0
1423.0 80.0
1423.0 102.0
1423.0 124.0
1423.0 143.0
1423.0 162.0
1423.0 181.0
1423.0 199.0
1423.0 217.0
1423.0 235.0
1423.0 253.0
1423.0 271.0
1423.0 289.0
1423.0 307.0
1423.0 325.0
1423.0 343.0
1423.0 361.0
1423.0 379.0
1423.0 397.0
1433.0 190.0
1433.0 267.0
1433.0 358.0
1434.0 287.0
1436.0 269.0
1439.0 274.0
1439.0 382.0
1442.0 6.0
1442.0 10.0
1442.0 13.0
1442.0 16.0
1442.0 19.0
1442.0 22.0
1442.0 25.0
1442.0 28.0
1442.0 31.0
1442.0 35.0
1442.0 38.0
1442.0 41.0
1442.0 44.0
1442.0 47.0
1442.0 51.0
1442.0 54.0
1442.0 57.0
1442.0 60.0
1442.0 63.0
1442.0 67.0
1442.0 70.0
1442.0 73.0
1442.0 76.0
1442.0 79.0
1442.0 83.0
1442.0 86.0
1442.0 89.0
1442.0 92.0
1442.0 95.0
1442.0 99.0
1442.0 102.0
1442.0 105.0
1442.0 108.0
1442.0 111.0
1442.0 115.0
1442.0 118.0
1442.0 121.0
1442.0 124.0
1442.0 127.0
1442.0 131.0
1442.0 134.0
1442.0 137.0
1442.0 140.0
1442.0 143.0
1442.0 147.0
1442.0 150.0
1442.0 153.0
1442.0 156.0
1442.0 159.0
1442.0 163.0
1442.0 166.0
1442.0 169.0
1442.0 172.0
1442.0 175.0
1442.0 179.0
1442.0 182.0
1442.0 185.0
1442.0 188.0
1442.0 191.0
1442.0 195.0
1442.0 198.0
1442.0 201.0
1442.0 204.0
1442.0 207.0
1442.0 211.0
1442.0 214.0
1442.0 217.0
1442.0 220.0
1442.0 223.0
1442.0 226.0
1442.0 229.0
1442.0 232.0
1442.0 235.0
1442.0 238.0
1442.0 241.0
1442.0 244.0
1442.0 247.0
1442.0 250.0
1442.0 253.0
1442.0 256.0
1442.0 259.0
1442.0 262.0
1442.0 265.0
1442.0 268.0
1442.0 271.0
1442.0 274.0
1442.0 277.0
1442.0 280.0
1442.0 283.0
1442.0 286.0
1442.0 289.0
1442.0 292.0
1442.0 295.0
1442.0 298.0
1442.0 301.0
1442.0 304.0
1442.0 307.0
1442.0 310.0
1442.0 313.0
1442.0 316.0
1442.0 319.0
1442.0 322.0
1442.0 325.0
1442.0 328.0
1442.0 331.0
1442.0 334.0
1442.0 337.0
1442.0 340.0
1442.0 343.0
1442.0 346.0
1442.0 349.0
1442.0 352.0
1442.0 355.0
1442.0 358.0
1442.0 361.0
1442.0 364.0
1442.0 367.0
1442.0 370.0
1442.0 373.0
1442.0 376.0
1442.0 379.0
1442.0 382.0
1442.0 385.0
1442.0 388.0
1442.0 391.0
1442.0 394.0
1442.0 397.0
1445.0 252.0
1445.0 350.0
1446.0 163.0
1446.0 250.0
1446.0 325.0
