178.0 311.0
235.0 297.0
241.0 279.0
303.0 232.0
334.0 282.0
347.0 40.0
347.0 62.0
347.0 88.0
347.0 113.0
347.0 134.0
347.0 155.0
347.0 176.0
347.0 196.0
347.0 214.0
347.0 231.0
347.0 249.0
347.0 267.0
347.0 284.0
347.0 301.0
347.0 318.0
347.0 339.0
347.0 362.0
347.0 384.0
407.0 138.0
407.0 247.0
426.0 262.0
428.0 213.0
428.0 286.0
434.0 189.0
434.0 276.0
445.0 246.0
445.0 303.0
456.0 40.0
456.0 63.0
456.0 89.0
456.0 115.0
456.0 136.0
456.0 156.0
456.0 178.0
456.0 198.0
456.0 216.0
456.0 234.0
456.0 252.0
456.0 270.0
456.0 288.0
456.0 306.0
456.0 325.0
456.0 347.0
456.0 368.0
456.0 390.0
466.0 260.0
466.0 324.0
467.0 303.0
468.0 223.0
475.0 271.0
476.0 199.0
478.0 267.0
547.0 208.0
558.0 219.0
558.0 303.0
568.0 142.0
568.0 221.0
568.0 298.0
577.0 285.0
588.0 218.0
588.0 287.0
589.0 225.0
589.0 315.0
591.0 38.0
591.0 58.0
591.0 80.0
591.0 102.0
591.0 122.0
591.0 141.0
591.0 160.0
591.0 179.0
591.0 197.0
591.0 213.0
591.0 230.0
591.0 246.0
591.0 262.0
591.0 278.0
591.0 295.0
591.0 311.0
591.0 329.0
591.0 350.0
591.0 370.0
591.0 390.0
598.0 284.0
599.0 39.0
599.0 61.0
599.0 85.0
599.0 108.0
599.0 128.0
599.0 150.0
599.0 171.0
599.0 190.0
599.0 207.0
599.0 225.0
599.0 243.0
599.0 261.0
599.0 278.0
599.0 295.0
599.0 312.0
599.0 331.0
599.0 353.0
599.0 375.0
599.0 397.0
601.0 274.0
605.0 234.0
605.0 315.0
612.0 222.0
612.0 303.0
615.0 279.0
625.0 211.0
625.0 299.0
632.0 282.0
671.0 77.0
671.0 128.0
671.0 185.0
671.0 231.0
671.0 273.0
677.0 95.0
677.0 166.0
677.0 235.0
677.0 301.0
679.0 113.0
679.0 183.0
679.0 251.0
680.0 6.0
680.0 10.0
680.0 14.0
680.0 17.0
680.0 21.0
680.0 24.0
680.0 28.0
680.0 31.0
680.0 34.0
680.0 37.0
680.0 40.0
680.0 43.0
680.0 46.0
680.0 49.0
680.0 52.0
680.0 55.0
680.0 58.0
680.0 61.0
680.0 64.0
680.0 67.0
680.0 70.0
680.0 73.0
680.0 76.0
680.0 79.0
680.0 82.0
680.0 85.0
680.0 88.0
680.0 91.0
680.0 94.0
680.0 97.0
680.0 100.0
680.0 103.0
680.0 106.0
680.0 109.0
680.0 112.0
680.0 115.0
680.0 118.0
680.0 121.0
680.0 124.0
680.0 127.0
680.0 130.0
680.0 133.0
680.0 136.0
680.0 139.0
680.0 142.0
680.0 145.0
680.0 148.0
680.0 151.0
680.0 154.0
680.0 157.0
680.0 160.0
680.0 163.0
680.0 166.0
680.0 169.0
680.0 172.0
680.0 175.0
680.0 178.0
680.0 181.0
680.0 184.0
680.0 187.0
680.0 190.0
680.0 193.0
680.0 196.0
680.0 199.0
680.0 202.0
680.0 205.0
680.0 208.0
680.0 211.0
680.0 214.0
680.0 217.0
680.0 220.0
680.0 223.0
680.0 226.0
680.0 229.0
680.0 232.0
680.0 235.0
680.0 238.0
680.0 241.0
680.0 244.0
680.0 247.0
680.0 250.0
680.0 253.0
680.0 256.0
680.0 259.0
680.0 262.0
680.0 265.0
680.0 268.0
680.0 271.0
680.0 274.0
680.0 277.0
680.0 280.0
680.0 283.0
680.0 286.0
680.0 289.0
680.0 292.0
680.0 295.0
680.0 298.0
680.0 301.0
680.0 304.0
680.0 307.0
680.0 310.0
680.0 314.0
680.0 318.0
680.0 322.0
680.0 325.0
680.0 329.0
680.0 333.0
680.0 337.0
680.0 341.0
680.0 345.0
680.0 349.0
680.0 353.0
680.0 357.0
680.0 361.0
680.0 365.0
680.0 369.0
680.0 373.0
680.0 377.0
680.0 381.0
680.0 385.0
680.0 389.0
680.0 393.0
680.0 398.0
687.0 213.0
695.0 131.0
695.0 206.0
695.0 272.0
696.0 274.0
698.0 120.0
698.0 190.0
698.0 246.0
698.0 298.0
704.0 112.0
704.0 190.0
704.0 253.0
705.0 141.0
705.0 216.0
705.0 306.0
707.0 242.0
709.0 280.0
714.0 36.0
714.0 54.0
714.0 71.0
714.0 89.0
714.0 106.0
714.0 124.0
714.0 141.0
714.0 158.0
714.0 175.0
714.0 191.0
714.0 207.0
714.0 223.0
714.0 239.0
714.0 255.0
714.0 271.0
714.0 287.0
714.0 302.0
714.0 318.0
714.0 336.0
714.0 356.0
714.0 376.0
714.0 396.0
717.0 119.0
717.0 185.0
717.0 254.0
717.0 311.0
718.0 281.0
719.0 127.0
719.0 192.0
719.0 254.0
719.0 311.0
719.0 383.0
725.0 38.0
725.0 59.0
725.0 82.0
725.0 105.0
725.0 126.0
725.0 146.0
725.0 165.0
725.0 183.0
725.0 200.0
725.0 216.0
725.0 232.0
725.0 249.0
725.0 265.0
725.0 280.0
725.0 297.0
725.0 313.0
725.0 329.0
725.0 346.0
725.0 363.0
725.0 380.0
725.0 397.0
726.0 215.0
726.0 278.0
729.0 173.0
729.0 251.0
729.0 341.0
734.0 174.0
734.0 252.0
734.0 318.0
735.0 37.0
735.0 58.0
735.0 83.0
735.0 108.0
735.0 129.0
735.0 149.0
735.0 169.0
735.0 187.0
735.0 203.0
735.0 220.0
735.0 237.0
735.0 253.0
735.0 269.0
735.0 285.0
735.0 301.0
735.0 317.0
735.0 334.0
735.0 351.0
735.0 369.0
735.0 386.0
736.0 39.0
736.0 61.0
736.0 86.0
736.0 111.0
736.0 132.0
736.0 153.0
736.0 173.0
736.0 192.0
736.0 209.0
736.0 227.0
736.0 245.0
736.0 262.0
736.0 279.0
736.0 297.0
736.0 315.0
736.0 335.0
736.0 355.0
736.0 377.0
736.0 399.0
738.0 36.0
738.0 55.0
738.0 73.0
738.0 92.0
738.0 111.0
738.0 130.0
738.0 149.0
738.0 167.0
738.0 185.0
738.0 203.0
738.0 221.0
738.0 239.0
738.0 257.0
738.0 274.0
738.0 291.0
738.0 308.0
738.0 327.0
738.0 348.0
738.0 371.0
738.0 393.0
744.0 204.0
744.0 272.0
744.0 386.0
754.0 277.0
762.0 271.0
763.0 6.0
763.0 11.0
763.0 16.0
763.0 20.0
763.0 24.0
763.0 28.0
763.0 32.0
763.0 36.0
763.0 40.0
763.0 44.0
763.0 48.0
763.0 53.0
763.0 57.0
763.0 63.0
763.0 68.0
763.0 73.0
763.0 78.0
763.0 83.0
763.0 88.0
763.0 93.0
763.0 98.0
763.0 103.0
763.0 108.0
763.0 112.0
763.0 116.0
763.0 120.0
763.0 124.0
763.0 128.0
763.0 132.0
763.0 136.0
763.0 140.0
763.0 144.0
763.0 148.0
763.0 152.0
763.0 156.0
763.0 160.0
763.0 164.0
763.0 168.0
763.0 172.0
763.0 175.0
763.0 179.0
763.0 182.0
763.0 186.0
763.0 189.0
763.0 192.0
763.0 195.0
763.0 198.0
763.0 201.0
763.0 204.0
763.0 207.0
763.0 210.0
763.0 213.0
763.0 216.0
763.0 219.0
763.0 223.0
763.0 226.0
763.0 229.0
763.0 232.0
763.0 235.0
763.0 239.0
763.0 242.0
763.0 245.0
763.0 248.0
763.0 251.0
763.0 255.0
763.0 258.0
763.0 261.0
763.0 264.0
763.0 267.0
763.0 270.0
763.0 273.0
763.0 276.0
763.0 279.0
763.0 283.0
763.0 286.0
763.0 289.0
763.0 292.0
763.0 295.0
763.0 298.0
763.0 301.0
763.0 304.0
763.0 307.0
763.0 310.0
763.0 313.0
763.0 316.0
763.0 319.0
763.0 322.0
763.0 325.0
763.0 329.0
763.0 332.0
763.0 335.0
763.0 339.0
763.0 342.0
763.0 345.0
763.0 348.0
763.0 351.0
763.0 355.0
763.0 358.0
763.0 361.0
763.0 364.0
763.0 367.0
763.0 371.0
763.0 374.0
763.0 377.0
763.0 380.0
763.0 383.0
763.0 387.0
763.0 390.0
763.0 393.0
763.0 396.0
801.0 96.0
801.0 165.0
801.0 228.0
801.0 294.0
805.0 214.0
819.0 204.0
819.0 279.0
819.0 365.0
820.0 267.0
827.0 75.0
827.0 129.0
827.0 178.0
827.0 234.0
827.0 276.0
832.0 262.0
833.0 205.0
833.0 282.0
837.0 115.0
837.0 185.0
837.0 257.0
839.0 134.0
839.0 207.0
839.0 278.0
841.0 41.0
841.0 67.0
841.0 97.0
841.0 124.0
841.0 150.0
841.0 174.0
841.0 196.0
841.0 216.0
841.0 237.0
841.0 258.0
841.0 277.0
841.0 298.0
841.0 318.0
841.0 343.0
841.0 368.0
841.0 393.0
842.0 34.0
842.0 54.0
842.0 74.0
842.0 94.0
842.0 114.0
842.0 134.0
842.0 154.0
842.0 173.0
842.0 192.0
842.0 211.0
842.0 230.0
842.0 248.0
842.0 267.0
842.0 285.0
842.0 304.0
842.0 325.0
842.0 348.0
842.0 372.0
842.0 396.0
843.0 39.0
843.0 62.0
843.0 89.0
843.0 115.0
843.0 137.0
843.0 159.0
843.0 181.0
843.0 201.0
843.0 219.0
843.0 238.0
843.0 257.0
843.0 276.0
843.0 294.0
843.0 313.0
843.0 334.0
843.0 357.0
843.0 381.0
847.0 136.0
847.0 228.0
847.0 294.0
850.0 184.0
850.0 256.0
850.0 316.0
851.0 78.0
851.0 140.0
851.0 187.0
851.0 226.0
851.0 268.0
851.0 310.0
851.0 355.0
851.0 400.0
852.0 35.0
852.0 53.0
852.0 70.0
852.0 88.0
852.0 105.0
852.0 122.0
852.0 140.0
852.0 157.0
852.0 173.0
852.0 190.0
852.0 206.0
852.0 222.0
852.0 238.0
852.0 255.0
852.0 271.0
852.0 287.0
852.0 303.0
852.0 320.0
852.0 340.0
852.0 360.0
852.0 381.0
857.0 35.0
857.0 52.0
857.0 69.0
857.0 86.0
857.0 102.0
857.0 119.0
857.0 136.0
857.0 151.0
857.0 166.0
857.0 181.0
857.0 197.0
857.0 212.0
857.0 227.0
857.0 242.0
857.0 257.0
857.0 272.0
857.0 287.0
857.0 302.0
857.0 317.0
857.0 335.0
857.0 354.0
857.0 373.0
857.0 391.0
860.0 37.0
860.0 57.0
860.0 78.0
860.0 99.0
860.0 120.0
860.0 139.0
860.0 157.0
860.0 176.0
860.0 193.0
860.0 208.0
860.0 224.0
860.0 240.0
860.0 256.0
860.0 272.0
860.0 288.0
860.0 303.0
860.0 319.0
860.0 338.0
860.0 358.0
860.0 378.0
860.0 398.0
861.0 40.0
861.0 64.0
861.0 91.0
861.0 117.0
861.0 139.0
861.0 161.0
861.0 183.0
861.0 202.0
861.0 220.0
861.0 240.0
861.0 258.0
861.0 277.0
861.0 297.0
861.0 315.0
861.0 336.0
861.0 360.0
861.0 384.0
863.0 191.0
863.0 257.0
863.0 327.0
864.0 209.0
864.0 278.0
864.0 386.0
866.0 27.0
866.0 40.0
866.0 52.0
866.0 64.0
866.0 76.0
866.0 89.0
866.0 101.0
866.0 113.0
866.0 125.0
866.0 137.0
866.0 149.0
866.0 161.0
866.0 172.0
866.0 184.0
866.0 195.0
866.0 205.0
866.0 215.0
866.0 225.0
866.0 236.0
866.0 247.0
866.0 257.0
866.0 268.0
866.0 278.0
866.0 288.0
866.0 299.0
866.0 309.0
866.0 320.0
866.0 331.0
866.0 343.0
866.0 355.0
866.0 367.0
866.0 379.0
866.0 391.0
870.0 223.0
870.0 305.0
872.0 267.0
880.0 39.0
880.0 61.0
880.0 87.0
880.0 111.0
880.0 134.0
880.0 154.0
880.0 174.0
880.0 192.0
880.0 209.0
880.0 226.0
880.0 243.0
880.0 260.0
880.0 277.0
880.0 295.0
880.0 311.0
880.0 327.0
880.0 345.0
880.0 362.0
880.0 380.0
880.0 397.0
881.0 313.0
883.0 282.0
886.0 271.0
889.0 279.0
894.0 231.0
894.0 305.0
941.0 35.0
941.0 55.0
941.0 75.0
941.0 95.0
941.0 115.0
941.0 134.0
941.0 153.0
941.0 172.0
941.0 190.0
941.0 209.0
941.0 229.0
941.0 248.0
941.0 266.0
941.0 285.0
941.0 305.0
941.0 326.0
941.0 348.0
941.0 371.0
941.0 395.0
942.0 111.0
942.0 183.0
942.0 261.0
949.0 35.0
949.0 53.0
949.0 70.0
949.0 87.0
949.0 104.0
949.0 121.0
949.0 137.0
949.0 153.0
949.0 169.0
949.0 185.0
949.0 201.0
949.0 216.0
949.0 232.0
949.0 248.0
949.0 264.0
949.0 279.0
949.0 294.0
949.0 311.0
949.0 330.0
949.0 349.0
949.0 369.0
949.0 389.0
950.0 34.0
950.0 53.0
950.0 72.0
950.0 91.0
950.0 109.0
950.0 127.0
950.0 145.0
950.0 163.0
950.0 181.0
950.0 198.0
950.0 214.0
950.0 232.0
950.0 250.0
950.0 266.0
950.0 283.0
950.0 301.0
950.0 319.0
950.0 340.0
950.0 361.0
950.0 383.0
951.0 149.0
951.0 232.0
951.0 313.0
951.0 388.0
953.0 152.0
953.0 210.0
953.0 272.0
959.0 35.0
959.0 54.0
959.0 73.0
959.0 92.0
959.0 111.0
959.0 129.0
959.0 148.0
959.0 167.0
959.0 185.0
959.0 202.0
959.0 220.0
959.0 238.0
959.0 256.0
959.0 273.0
959.0 291.0
959.0 309.0
959.0 330.0
959.0 352.0
959.0 375.0
959.0 398.0
960.0 114.0
960.0 201.0
960.0 276.0
964.0 266.0
965.0 188.0
965.0 263.0
965.0 340.0
971.0 226.0
973.0 33.0
973.0 51.0
973.0 68.0
973.0 86.0
973.0 104.0
973.0 121.0
973.0 138.0
973.0 155.0
973.0 171.0
973.0 188.0
973.0 204.0
973.0 220.0
973.0 237.0
973.0 253.0
973.0 269.0
973.0 285.0
973.0 301.0
973.0 318.0
973.0 337.0
973.0 357.0
973.0 378.0
973.0 398.0
975.0 160.0
975.0 244.0
975.0 307.0
981.0 106.0
981.0 175.0
981.0 232.0
981.0 283.0
983.0 262.0
985.0 126.0
985.0 186.0
985.0 234.0
985.0 288.0
985.0 345.0
989.0 282.0
991.0 34.0
991.0 51.0
991.0 68.0
991.0 85.0
991.0 102.0
991.0 119.0
991.0 136.0
991.0 153.0
991.0 169.0
991.0 186.0
991.0 202.0
991.0 218.0
991.0 234.0
991.0 250.0
991.0 267.0
991.0 283.0
991.0 300.0
991.0 316.0
991.0 335.0
991.0 355.0
991.0 375.0
991.0 395.0
992.0 301.0
994.0 278.0
997.0 220.0
998.0 166.0
998.0 250.0
998.0 349.0
1001.0 37.0
1001.0 61.0
1001.0 88.0
1001.0 116.0
1001.0 139.0
1001.0 160.0
1001.0 180.0
1001.0 199.0
1001.0 217.0
1001.0 234.0
1001.0 252.0
1001.0 270.0
1001.0 288.0
1001.0 305.0
1001.0 322.0
1001.0 340.0
1001.0 358.0
1001.0 376.0
1001.0 394.0
1002.0 271.0
1004.0 352.0
1010.0 256.0
1012.0 36.0
1012.0 58.0
1012.0 84.0
1012.0 109.0
1012.0 132.0
1012.0 153.0
1012.0 174.0
1012.0 193.0
1012.0 210.0
1012.0 228.0
1012.0 246.0
1012.0 264.0
1012.0 280.0
1012.0 297.0
1012.0 314.0
1012.0 331.0
1012.0 349.0
1012.0 366.0
1012.0 384.0
1014.0 238.0
1014.0 311.0
1016.0 39.0
1016.0 64.0
1016.0 94.0
1016.0 122.0
1016.0 146.0
1016.0 169.0
1016.0 191.0
1016.0 210.0
1016.0 229.0
1016.0 249.0
1016.0 268.0
1016.0 286.0
1016.0 305.0
1016.0 323.0
1016.0 342.0
1016.0 362.0
1016.0 381.0
1016.0 400.0
1018.0 217.0
1018.0 283.0
1022.0 273.0
1028.0 235.0
1038.0 38.0
1038.0 60.0
1038.0 86.0
1038.0 111.0
1038.0 133.0
1038.0 153.0
1038.0 173.0
1038.0 191.0
1038.0 208.0
1038.0 225.0
1038.0 242.0
1038.0 260.0
1038.0 277.0
1038.0 295.0
1038.0 312.0
1038.0 329.0
1038.0 347.0
1038.0 365.0
1038.0 383.0
1067.0 256.0
1068.0 34.0
1068.0 52.0
1068.0 70.0
1068.0 88.0
1068.0 106.0
1068.0 124.0
1068.0 142.0
1068.0 160.0
1068.0 177.0
1068.0 194.0
1068.0 211.0
1068.0 228.0
1068.0 245.0
1068.0 262.0
1068.0 278.0
1068.0 295.0
1068.0 312.0
1068.0 332.0
1068.0 353.0
1068.0 374.0
1068.0 395.0
1075.0 35.0
1075.0 54.0
1075.0 73.0
1075.0 92.0
1075.0 111.0
1075.0 129.0
1075.0 148.0
1075.0 166.0
1075.0 184.0
1075.0 202.0
1075.0 220.0
1075.0 239.0
1075.0 257.0
1075.0 273.0
1075.0 291.0
1075.0 309.0
1075.0 329.0
1075.0 351.0
1075.0 373.0
1075.0 395.0
1084.0 96.0
1084.0 151.0
1084.0 207.0
1084.0 264.0
1087.0 35.0
1087.0 54.0
1087.0 73.0
1087.0 92.0
1087.0 110.0
1087.0 128.0
1087.0 146.0
1087.0 163.0
1087.0 181.0
1087.0 199.0
1087.0 217.0
1087.0 235.0
1087.0 253.0
1087.0 271.0
1087.0 289.0
1087.0 307.0
1087.0 326.0
1087.0 347.0
1087.0 368.0
1087.0 389.0
1088.0 34.0
1088.0 53.0
1088.0 72.0
1088.0 91.0
1088.0 110.0
1088.0 128.0
1088.0 146.0
1088.0 165.0
1088.0 183.0
1088.0 201.0
1088.0 220.0
1088.0 239.0
1088.0 257.0
1088.0 274.0
1088.0 293.0
1088.0 311.0
1088.0 332.0
1088.0 353.0
1088.0 376.0
1088.0 398.0
1097.0 264.0
1099.0 241.0
1105.0 33.0
1105.0 49.0
1105.0 66.0
1105.0 82.0
1105.0 98.0
1105.0 115.0
1105.0 132.0
1105.0 147.0
1105.0 162.0
1105.0 178.0
1105.0 193.0
1105.0 208.0
1105.0 223.0
1105.0 238.0
1105.0 253.0
1105.0 268.0
1105.0 282.0
1105.0 297.0
1105.0 312.0
1105.0 329.0
1105.0 347.0
1105.0 366.0
1105.0 385.0
1106.0 136.0
1106.0 246.0
1107.0 215.0
1107.0 290.0
1110.0 206.0
1110.0 284.0
1114.0 34.0
1114.0 52.0
1114.0 70.0
1114.0 88.0
1114.0 106.0
1114.0 124.0
1114.0 141.0
1114.0 158.0
1114.0 175.0
1114.0 192.0
1114.0 209.0
1114.0 226.0
1114.0 243.0
1114.0 260.0
1114.0 277.0
1114.0 293.0
1114.0 310.0
1114.0 328.0
1114.0 347.0
1114.0 367.0
1114.0 387.0
1115.0 143.0
1115.0 212.0
1115.0 278.0
1115.0 335.0
1117.0 117.0
1117.0 193.0
1117.0 261.0
1118.0 35.0
1118.0 55.0
1118.0 74.0
1118.0 93.0
1118.0 111.0
1118.0 130.0
1118.0 148.0
1118.0 166.0
1118.0 184.0
1118.0 201.0
1118.0 219.0
1118.0 237.0
1118.0 255.0
1118.0 271.0
1118.0 288.0
1118.0 306.0
1118.0 325.0
1118.0 347.0
1118.0 369.0
1118.0 391.0
1127.0 274.0
1134.0 218.0
1134.0 281.0
1134.0 398.0
1135.0 35.0
1135.0 55.0
1135.0 74.0
1135.0 93.0
1135.0 113.0
1135.0 133.0
1135.0 151.0
1135.0 170.0
1135.0 189.0
1135.0 208.0
1135.0 227.0
1135.0 245.0
1135.0 264.0
1135.0 283.0
1135.0 301.0
1135.0 320.0
1135.0 342.0
1135.0 365.0
1135.0 388.0
1136.0 321.0
1148.0 261.0
1148.0 325.0
1156.0 36.0
1156.0 60.0
1156.0 88.0
1156.0 115.0
1156.0 138.0
1156.0 159.0
1156.0 180.0
1156.0 198.0
1156.0 216.0
1156.0 234.0
1156.0 252.0
1156.0 270.0
1156.0 287.0
1156.0 304.0
1156.0 321.0
1156.0 339.0
1156.0 358.0
1156.0 376.0
1156.0 394.0
1163.0 250.0
1165.0 37.0
1165.0 60.0
1165.0 88.0
1165.0 115.0
1165.0 139.0
1165.0 161.0
1165.0 182.0
1165.0 201.0
1165.0 220.0
1165.0 239.0
1165.0 258.0
1165.0 276.0
1165.0 295.0
1165.0 313.0
1165.0 331.0
1165.0 350.0
1165.0 369.0
1165.0 388.0
1172.0 37.0
1172.0 60.0
1172.0 87.0
1172.0 113.0
1172.0 136.0
1172.0 157.0
1172.0 178.0
1172.0 196.0
1172.0 214.0
1172.0 232.0
1172.0 250.0
1172.0 268.0
1172.0 285.0
1172.0 302.0
1172.0 319.0
1172.0 337.0
1172.0 355.0
1172.0 373.0
1172.0 391.0
1174.0 183.0
1174.0 255.0
1174.0 326.0
1196.0 138.0
1196.0 214.0
1196.0 280.0
1204.0 36.0
1204.0 55.0
1204.0 74.0
1204.0 93.0
1204.0 111.0
1204.0 130.0
1204.0 148.0
1204.0 166.0
1204.0 184.0
1204.0 201.0
1204.0 217.0
1204.0 235.0
1204.0 253.0
1204.0 270.0
1204.0 287.0
1204.0 305.0
1204.0 324.0
1204.0 346.0
1204.0 367.0
1204.0 388.0
1205.0 119.0
1205.0 197.0
1205.0 266.0
1213.0 189.0
1213.0 259.0
1222.0 36.0
1222.0 54.0
1222.0 72.0
1222.0 90.0
1222.0 108.0
1222.0 126.0
1222.0 144.0
1222.0 161.0
1222.0 178.0
1222.0 194.0
1222.0 211.0
1222.0 227.0
1222.0 244.0
1222.0 260.0
1222.0 276.0
1222.0 292.0
1222.0 309.0
1222.0 327.0
1222.0 347.0
1222.0 367.0
1222.0 387.0
1223.0 191.0
1223.0 266.0
1225.0 123.0
1225.0 189.0
1225.0 254.0
1225.0 293.0
1225.0 350.0
1226.0 34.0
1226.0 52.0
1226.0 70.0
1226.0 88.0
1226.0 105.0
1226.0 122.0
1226.0 139.0
1226.0 155.0
1226.0 171.0
1226.0 188.0
1226.0 204.0
1226.0 220.0
1226.0 236.0
1226.0 252.0
1226.0 268.0
1226.0 284.0
1226.0 300.0
1226.0 316.0
1226.0 334.0
1226.0 353.0
1226.0 373.0
1226.0 393.0
1236.0 190.0
1236.0 271.0
1236.0 391.0
1238.0 180.0
1238.0 266.0
1238.0 368.0
1241.0 148.0
1241.0 215.0
1241.0 277.0
1241.0 364.0
1243.0 176.0
1243.0 243.0
1243.0 297.0
1243.0 375.0
1244.0 148.0
1244.0 258.0
1247.0 217.0
1251.0 37.0
1251.0 59.0
1251.0 85.0
1251.0 110.0
1251.0 132.0
1251.0 152.0
1251.0 172.0
1251.0 191.0
1251.0 208.0
1251.0 225.0
1251.0 241.0
1251.0 258.0
1251.0 274.0
1251.0 292.0
1251.0 309.0
1251.0 326.0
1251.0 343.0
1251.0 361.0
1251.0 379.0
1251.0 397.0
1252.0 282.0
1253.0 37.0
1253.0 62.0
1253.0 92.0
1253.0 121.0
1253.0 145.0
1253.0 169.0
1253.0 191.0
1253.0 210.0
1253.0 230.0
1253.0 250.0
1253.0 269.0
1253.0 289.0
1253.0 309.0
1253.0 328.0
1253.0 348.0
1253.0 368.0
1253.0 387.0
1254.0 35.0
1254.0 54.0
1254.0 73.0
1254.0 92.0
1254.0 111.0
1254.0 129.0
1254.0 147.0
1254.0 164.0
1254.0 181.0
1254.0 198.0
1254.0 215.0
1254.0 232.0
1254.0 249.0
1254.0 266.0
1254.0 283.0
1254.0 300.0
1254.0 317.0
1254.0 336.0
1254.0 356.0
1254.0 377.0
1254.0 398.0
1257.0 177.0
1257.0 232.0
1257.0 292.0
1262.0 273.0
1263.0 188.0
1263.0 266.0
1263.0 375.0
1305.0 282.0
1337.0 34.0
1337.0 52.0
1337.0 70.0
1337.0 88.0
1337.0 106.0
1337.0 124.0
1337.0 142.0
1337.0 160.0
1337.0 177.0
1337.0 194.0
1337.0 211.0
1337.0 229.0
1337.0 247.0
1337.0 264.0
1337.0 281.0
1337.0 299.0
1337.0 316.0
1337.0 335.0
1337.0 356.0
1337.0 377.0
1337.0 398.0
1340.0 34.0
1340.0 52.0
1340.0 70.0
1340.0 88.0
1340.0 106.0
1340.0 123.0
1340.0 141.0
1340.0 158.0
1340.0 175.0
1340.0 192.0
1340.0 209.0
1340.0 226.0
1340.0 243.0
1340.0 260.0
1340.0 277.0
1340.0 294.0
1340.0 310.0
1340.0 329.0
1340.0 348.0
1340.0 368.0
1340.0 388.0
1345.0 34.0
1345.0 53.0
1345.0 71.0
1345.0 89.0
1345.0 107.0
1345.0 125.0
1345.0 143.0
1345.0 161.0
1345.0 178.0
1345.0 196.0
1345.0 214.0
1345.0 232.0
1345.0 250.0
1345.0 268.0
1345.0 286.0
1345.0 304.0
1345.0 323.0
1345.0 344.0
1345.0 367.0
1345.0 389.0
1347.0 265.0
1352.0 293.0
1355.0 149.0
1355.0 205.0
1355.0 260.0
1355.0 325.0
1355.0 382.0
1365.0 206.0
1365.0 271.0
1365.0 343.0
1374.0 202.0
1374.0 280.0
1388.0 212.0
1388.0 324.0
1390.0 38.0
1390.0 60.0
1390.0 86.0
1390.0 112.0
1390.0 134.0
1390.0 154.0
1390.0 174.0
1390.0 194.0
1390.0 211.0
1390.0 228.0
1390.0 245.0
1390.0 262.0
1390.0 278.0
1390.0 295.0
1390.0 312.0
1390.0 329.0
1390.0 347.0
1390.0 365.0
1390.0 383.0
1390.0 400.0
1404.0 38.0
1404.0 62.0
1404.0 90.0
1404.0 118.0
1404.0 141.0
1404.0 162.0
1404.0 183.0
1404.0 202.0
1404.0 220.0
1404.0 238.0
1404.0 256.0
1404.0 274.0
1404.0 292.0
1404.0 310.0
1404.0 328.0
1404.0 346.0
1404.0 364.0
1404.0 383.0
1415.0 217.0
1415.0 295.0
1417.0 36.0
1417.0 56.0
1417.0 76.0
1417.0 96.0
1417.0 116.0
1417.0 136.0
1417.0 154.0
1417.0 173.0
1417.0 192.0
1417.0 211.0
1417.0 229.0
1417.0 247.0
1417.0 266.0
1417.0 285.0
1417.0 304.0
1417.0 324.0
1417.0 347.0
1417.0 371.0
1417.0 395.0
1418.0 35.0
1418.0 55.0
1418.0 74.0
1418.0 93.0
1418.0 112.0
1418.0 130.0
1418.0 148.0
1418.0 166.0
1418.0 184.0
1418.0 202.0
1418.0 220.0
1418.0 238.0
1418.0 255.0
1418.0 273.0
1418.0 291.0
1418.0 308.0
1418.0 328.0
1418.0 349.0
1418.0 371.0
1418.0 393.0
1419.0 152.0
1419.0 241.0
1419.0 310.0
1420.0 273.0
1423.0 34.0
1423.0 53.0
1423.0 71.0
1423.0 89.0
1423.0 107.0
1423.0 125.0
1423.0 143.0
1423.0 160.0
1423.0 178.0
1423.0 196.0
1423.0 214.0
1423.0 232.0
1423.0 250.0
1423.0 268.0
1423.0 286.0
1423.0 304.0
1423.0 322.0
1423.0 342.0
1423.0 363.0
1423.0 384.0
1433.0 157.0
1433.0 232.0
1433.0 307.0
1434.0 198.0
1434.0 276.0
1434.0 391.0
1436.0 210.0
1436.0 279.0
1439.0 185.0
1439.0 296.0
1442.0 6.0
1442.0 9.0
1442.0 13.0
1442.0 16.0
1442.0 19.0
1442.0 22.0
1442.0 25.0
1442.0 29.0
1442.0 32.0
1442.0 35.0
1442.0 38.0
1442.0 41.0
1442.0 45.0
1442.0 48.0
1442.0 51.0
1442.0 54.0
1442.0 57.0
1442.0 61.0
1442.0 64.0
1442.0 67.0
1442.0 70.0
1442.0 73.0
1442.0 77.0
1442.0 80.0
1442.0 83.0
1442.0 86.0
1442.0 89.0
1442.0 93.0
1442.0 96.0
1442.0 99.0
1442.0 102.0
1442.0 105.0
1442.0 109.0
1442.0 112.0
1442.0 115.0
1442.0 118.0
1442.0 121.0
1442.0 125.0
1442.0 128.0
1442.0 131.0
1442.0 134.0
1442.0 137.0
1442.0 140.0
1442.0 143.0
1442.0 146.0
1442.0 149.0
1442.0 152.0
1442.0 155.0
1442.0 158.0
1442.0 161.0
1442.0 164.0
1442.0 167.0
1442.0 170.0
1442.0 173.0
1442.0 176.0
1442.0 179.0
1442.0 182.0
1442.0 185.0
1442.0 188.0
1442.0 191.0
1442.0 194.0
1442.0 197.0
1442.0 200.0
1442.0 203.0
1442.0 206.0
1442.0 209.0
1442.0 212.0
1442.0 215.0
1442.0 218.0
1442.0 221.0
1442.0 224.0
1442.0 227.0
1442.0 230.0
1442.0 233.0
1442.0 236.0
1442.0 239.0
1442.0 242.0
1442.0 245.0
1442.0 248.0
1442.0 251.0
1442.0 254.0
1442.0 257.0
1442.0 260.0
1442.0 263.0
1442.0 266.0
1442.0 269.0
1442.0 272.0
1442.0 275.0
1442.0 278.0
1442.0 281.0
1442.0 284.0
1442.0 287.0
1442.0 290.0
1442.0 293.0
1442.0 296.0
1442.0 299.0
1442.0 302.0
1442.0 305.0
1442.0 308.0
1442.0 311.0
1442.0 314.0
1442.0 317.0
1442.0 320.0
1442.0 323.0
1442.0 326.0
1442.0 329.0
1442.0 332.0
1442.0 335.0
1442.0 338.0
1442.0 341.0
1442.0 344.0
1442.0 347.0
1442.0 350.0
1442.0 353.0
1442.0 356.0
1442.0 359.0
1442.0 362.0
1442.0 365.0
1442.0 368.0
1442.0 371.0
1442.0 374.0
1442.0 377.0
1442.0 380.0
1442.0 383.0
1442.0 386.0
1442.0 389.0
1442.0 392.0
1442.0 395.0
1445.0 177.0
1445.0 255.0
1446.0 177.0
1446.0 245.0
1446.0 299.0
1446.0 386.0
1447.0 337.0
