14.0 42.0
14.0 70.0
14.0 98.0
14.0 126.0
14.0 154.0
14.0 182.0
14.0 210.0
14.0 238.0
14.0 266.0
14.0 297.0
26.0 7.0
26.0 12.0
26.0 16.0
26.0 20.0
26.0 24.0
26.0 28.0
26.0 32.0
26.0 36.0
26.0 40.0
26.0 44.0
26.0 48.0
26.0 52.0
26.0 56.0
26.0 60.0
26.0 64.0
26.0 68.0
26.0 72.0
26.0 76.0
26.0 80.0
26.0 84.0
26.0 88.0
26.0 92.0
26.0 96.0
26.0 100.0
26.0 104.0
26.0 108.0
26.0 112.0
26.0 116.0
26.0 120.0
26.0 124.0
26.0 128.0
26.0 132.0
26.0 136.0
26.0 140.0
26.0 144.0
26.0 148.0
26.0 152.0
26.0 156.0
26.0 160.0
26.0 164.0
26.0 168.0
26.0 172.0
26.0 176.0
26.0 180.0
26.0 184.0
26.0 188.0
26.0 192.0
26.0 196.0
26.0 200.0
26.0 204.0
26.0 208.0
26.0 212.0
26.0 216.0
26.0 220.0
26.0 224.0
26.0 228.0
26.0 232.0
26.0 236.0
26.0 240.0
26.0 244.0
26.0 248.0
26.0 252.0
26.0 256.0
26.0 260.0
26.0 264.0
26.0 268.0
26.0 272.0
26.0 276.0
26.0 280.0
26.0 285.0
26.0 289.0
26.0 295.0
26.0 301.0
26.0 307.0
26.0 313.0
26.0 319.0
26.0 325.0
26.0 331.0
26.0 337.0
26.0 343.0
26.0 351.0
26.0 359.0
26.0 367.0
26.0 375.0
62.0 43.0
62.0 70.0
62.0 98.0
62.0 126.0
62.0 154.0
62.0 182.0
62.0 210.0
62.0 238.0
62.0 266.0
62.0 295.0
87.0 43.0
87.0 74.0
87.0 104.0
87.0 134.0
87.0 166.0
87.0 195.0
87.0 226.0
87.0 256.0
87.0 287.0
112.0 54.0
112.0 93.0
112.0 131.0
112.0 169.0
112.0 207.0
112.0 245.0
112.0 286.0
129.0 59.0
129.0 105.0
129.0 148.0
129.0 190.0
129.0 232.0
129.0 274.0
157.0 45.0
157.0 74.0
157.0 102.0
157.0 130.0
157.0 158.0
157.0 186.0
157.0 214.0
157.0 242.0
157.0 270.0
157.0 302.0
159.0 43.0
159.0 72.0
159.0 100.0
159.0 128.0
159.0 156.0
159.0 184.0
159.0 212.0
159.0 240.0
159.0 268.0
159.0 301.0
165.0 45.0
165.0 78.0
165.0 111.0
165.0 145.0
165.0 178.0
165.0 210.0
165.0 241.0
165.0 273.0
166.0 43.0
166.0 70.0
166.0 98.0
166.0 126.0
166.0 154.0
166.0 182.0
166.0 210.0
166.0 238.0
166.0 266.0
166.0 295.0
167.0 45.0
167.0 74.0
167.0 104.0
167.0 133.0
167.0 162.0
167.0 190.0
167.0 218.0
167.0 246.0
167.0 275.0
185.0 43.0
185.0 70.0
185.0 98.0
185.0 124.0
185.0 152.0
185.0 179.0
185.0 205.0
185.0 233.0
185.0 259.0
185.0 288.0
217.0 56.0
217.0 99.0
217.0 143.0
217.0 184.0
217.0 227.0
217.0 267.0
224.0 58.0
224.0 98.0
224.0 135.0
224.0 171.0
224.0 209.0
224.0 248.0
224.0 291.0
227.0 59.0
227.0 104.0
227.0 147.0
227.0 194.0
227.0 239.0
227.0 285.0
232.0 57.0
232.0 95.0
232.0 131.0
232.0 167.0
232.0 207.0
232.0 247.0
232.0 286.0
241.0 57.0
241.0 96.0
241.0 136.0
241.0 173.0
241.0 209.0
241.0 248.0
241.0 291.0
258.0 62.0
258.0 106.0
258.0 152.0
258.0 197.0
258.0 242.0
258.0 286.0
259.0 61.0
259.0 106.0
259.0 153.0
259.0 199.0
259.0 248.0
259.0 296.0
286.0 44.0
286.0 72.0
286.0 100.0
286.0 128.0
286.0 156.0
286.0 182.0
286.0 210.0
286.0 238.0
286.0 265.0
286.0 295.0
296.0 43.0
296.0 68.0
296.0 95.0
296.0 119.0
296.0 145.0
296.0 170.0
296.0 195.0
296.0 221.0
296.0 247.0
296.0 271.0
303.0 42.0
303.0 67.0
303.0 93.0
303.0 118.0
303.0 143.0
303.0 168.0
303.0 193.0
303.0 218.0
303.0 244.0
303.0 270.0
303.0 296.0
306.0 44.0
306.0 73.0
306.0 101.0
306.0 129.0
306.0 157.0
306.0 185.0
306.0 213.0
306.0 241.0
306.0 269.0
306.0 302.0
328.0 59.0
328.0 107.0
328.0 159.0
328.0 209.0
328.0 263.0
334.0 63.0
334.0 111.0
334.0 155.0
334.0 199.0
334.0 245.0
347.0 32.0
347.0 49.0
347.0 66.0
347.0 82.0
347.0 99.0
347.0 116.0
347.0 132.0
347.0 150.0
347.0 167.0
347.0 183.0
347.0 200.0
347.0 217.0
347.0 234.0
347.0 251.0
347.0 267.0
347.0 284.0
347.0 303.0
347.0 329.0
347.0 355.0
347.0 386.0
366.0 61.0
366.0 104.0
366.0 145.0
366.0 184.0
366.0 224.0
366.0 265.0
382.0 65.0
382.0 113.0
382.0 159.0
382.0 206.0
382.0 254.0
428.0 46.0
428.0 74.0
428.0 103.0
428.0 131.0
428.0 159.0
428.0 190.0
428.0 219.0
428.0 249.0
428.0 279.0
434.0 45.0
434.0 73.0
434.0 102.0
434.0 131.0
434.0 161.0
434.0 191.0
434.0 221.0
434.0 250.0
434.0 278.0
435.0 44.0
435.0 70.0
435.0 98.0
435.0 125.0
435.0 153.0
435.0 180.0
435.0 209.0
435.0 237.0
435.0 265.0
435.0 295.0
450.0 41.0
450.0 67.0
450.0 93.0
450.0 119.0
450.0 146.0
450.0 173.0
450.0 199.0
450.0 225.0
450.0 251.0
450.0 278.0
450.0 337.0
456.0 61.0
456.0 106.0
456.0 149.0
456.0 196.0
456.0 243.0
456.0 286.0
477.0 44.0
477.0 71.0
477.0 100.0
477.0 127.0
477.0 156.0
477.0 184.0
477.0 212.0
477.0 240.0
477.0 267.0
477.0 300.0
487.0 61.0
487.0 106.0
487.0 150.0
487.0 193.0
487.0 234.0
487.0 273.0
558.0 44.0
558.0 70.0
558.0 98.0
558.0 123.0
558.0 150.0
558.0 175.0
558.0 202.0
558.0 230.0
558.0 255.0
558.0 282.0
580.0 45.0
580.0 74.0
580.0 105.0
580.0 135.0
580.0 165.0
580.0 194.0
580.0 224.0
580.0 254.0
580.0 285.0
591.0 56.0
591.0 93.0
591.0 130.0
591.0 168.0
591.0 206.0
591.0 244.0
591.0 284.0
591.0 357.0
599.0 33.0
599.0 51.0
599.0 68.0
599.0 85.0
599.0 103.0
599.0 120.0
599.0 138.0
599.0 155.0
599.0 173.0
599.0 190.0
599.0 207.0
599.0 225.0
599.0 243.0
599.0 260.0
599.0 278.0
599.0 296.0
599.0 320.0
599.0 346.0
599.0 375.0
605.0 57.0
605.0 94.0
605.0 129.0
605.0 165.0
605.0 202.0
605.0 238.0
605.0 274.0
607.0 45.0
607.0 71.0
607.0 99.0
607.0 125.0
607.0 153.0
607.0 182.0
607.0 209.0
607.0 237.0
607.0 264.0
607.0 291.0
623.0 62.0
623.0 108.0
623.0 151.0
623.0 195.0
623.0 240.0
623.0 287.0
632.0 55.0
632.0 94.0
632.0 131.0
632.0 168.0
632.0 204.0
632.0 240.0
632.0 276.0
680.0 7.0
680.0 12.0
680.0 16.0
680.0 20.0
680.0 24.0
680.0 28.0
680.0 32.0
680.0 36.0
680.0 40.0
680.0 44.0
680.0 48.0
680.0 52.0
680.0 56.0
680.0 60.0
680.0 64.0
680.0 68.0
680.0 72.0
680.0 76.0
680.0 80.0
680.0 84.0
680.0 88.0
680.0 92.0
680.0 96.0
680.0 100.0
680.0 104.0
680.0 108.0
680.0 112.0
680.0 116.0
680.0 120.0
680.0 124.0
680.0 128.0
680.0 132.0
680.0 136.0
680.0 140.0
680.0 144.0
680.0 148.0
680.0 152.0
680.0 156.0
680.0 160.0
680.0 164.0
680.0 168.0
680.0 172.0
680.0 176.0
680.0 180.0
680.0 184.0
680.0 188.0
680.0 192.0
680.0 196.0
680.0 200.0
680.0 204.0
680.0 208.0
680.0 212.0
680.0 216.0
680.0 220.0
680.0 224.0
680.0 228.0
680.0 232.0
680.0 236.0
680.0 240.0
680.0 244.0
680.0 248.0
680.0 252.0
680.0 256.0
680.0 260.0
680.0 264.0
680.0 268.0
680.0 272.0
680.0 276.0
680.0 280.0
680.0 284.0
680.0 288.0
680.0 293.0
680.0 297.0
680.0 303.0
680.0 308.0
680.0 313.0
680.0 318.0
680.0 323.0
680.0 328.0
680.0 333.0
680.0 338.0
680.0 343.0
680.0 348.0
680.0 353.0
680.0 358.0
680.0 363.0
680.0 368.0
680.0 373.0
680.0 379.0
680.0 385.0
680.0 391.0
680.0 400.0
696.0 63.0
696.0 107.0
696.0 145.0
696.0 182.0
696.0 229.0
696.0 272.0
708.0 70.0
708.0 124.0
708.0 178.0
708.0 232.0
708.0 286.0
709.0 44.0
709.0 70.0
709.0 98.0
709.0 124.0
709.0 150.0
709.0 176.0
709.0 203.0
709.0 230.0
709.0 256.0
709.0 283.0
714.0 62.0
714.0 105.0
714.0 139.0
714.0 175.0
714.0 217.0
714.0 258.0
714.0 301.0
718.0 44.0
718.0 70.0
718.0 98.0
718.0 124.0
718.0 151.0
718.0 178.0
718.0 204.0
718.0 232.0
718.0 258.0
718.0 286.0
725.0 118.0
725.0 166.0
734.0 58.0
734.0 95.0
734.0 126.0
734.0 157.0
734.0 190.0
734.0 226.0
734.0 262.0
735.0 116.0
735.0 170.0
735.0 302.0
736.0 54.0
736.0 92.0
736.0 127.0
736.0 163.0
736.0 199.0
736.0 238.0
736.0 276.0
736.0 380.0
738.0 63.0
738.0 107.0
738.0 142.0
738.0 178.0
738.0 222.0
738.0 266.0
744.0 63.0
744.0 107.0
744.0 142.0
744.0 175.0
744.0 218.0
744.0 262.0
745.0 62.0
745.0 107.0
745.0 150.0
745.0 192.0
745.0 239.0
745.0 287.0
763.0 9.0
763.0 15.0
763.0 21.0
763.0 27.0
763.0 33.0
763.0 39.0
763.0 45.0
763.0 51.0
763.0 57.0
763.0 63.0
763.0 69.0
763.0 75.0
763.0 81.0
763.0 87.0
763.0 93.0
763.0 99.0
763.0 105.0
763.0 111.0
763.0 117.0
763.0 123.0
763.0 129.0
763.0 135.0
763.0 141.0
763.0 147.0
763.0 153.0
763.0 159.0
763.0 165.0
763.0 171.0
763.0 177.0
763.0 183.0
763.0 189.0
763.0 195.0
763.0 201.0
763.0 207.0
763.0 213.0
763.0 219.0
763.0 225.0
763.0 231.0
763.0 237.0
763.0 243.0
763.0 249.0
763.0 255.0
763.0 261.0
763.0 267.0
763.0 273.0
763.0 279.0
763.0 285.0
763.0 291.0
763.0 297.0
763.0 303.0
763.0 309.0
763.0 315.0
763.0 321.0
763.0 327.0
763.0 333.0
763.0 339.0
763.0 345.0
763.0 351.0
763.0 357.0
763.0 363.0
763.0 369.0
763.0 375.0
763.0 381.0
763.0 387.0
763.0 393.0
841.0 64.0
841.0 119.0
841.0 179.0
841.0 237.0
841.0 288.0
842.0 59.0
842.0 105.0
842.0 144.0
842.0 187.0
842.0 235.0
842.0 279.0
843.0 58.0
843.0 100.0
843.0 140.0
843.0 179.0
843.0 219.0
843.0 259.0
852.0 58.0
852.0 101.0
852.0 137.0
852.0 172.0
852.0 217.0
852.0 260.0
857.0 62.0
857.0 104.0
857.0 136.0
857.0 167.0
857.0 205.0
857.0 242.0
857.0 278.0
860.0 51.0
860.0 82.0
860.0 115.0
860.0 149.0
860.0 182.0
860.0 217.0
860.0 250.0
860.0 285.0
860.0 350.0
861.0 61.0
861.0 105.0
861.0 152.0
861.0 196.0
861.0 241.0
861.0 284.0
866.0 38.0
866.0 60.0
866.0 80.0
866.0 102.0
866.0 121.0
866.0 141.0
866.0 160.0
866.0 179.0
866.0 200.0
866.0 221.0
866.0 242.0
866.0 263.0
866.0 284.0
866.0 308.0
866.0 339.0
880.0 131.0
941.0 59.0
941.0 107.0
941.0 145.0
941.0 188.0
941.0 236.0
941.0 287.0
949.0 56.0
949.0 94.0
949.0 126.0
949.0 156.0
949.0 189.0
949.0 225.0
949.0 261.0
949.0 301.0
950.0 63.0
950.0 111.0
950.0 151.0
950.0 199.0
950.0 248.0
950.0 296.0
959.0 58.0
959.0 102.0
959.0 135.0
959.0 170.0
959.0 213.0
959.0 254.0
959.0 300.0
973.0 56.0
973.0 97.0
973.0 130.0
973.0 163.0
973.0 204.0
973.0 248.0
973.0 293.0
991.0 61.0
991.0 105.0
991.0 139.0
991.0 173.0
991.0 215.0
991.0 253.0
991.0 294.0
1012.0 133.0
1038.0 146.0
1068.0 60.0
1068.0 105.0
1068.0 140.0
1068.0 176.0
1068.0 219.0
1068.0 261.0
1075.0 64.0
1075.0 110.0
1075.0 146.0
1075.0 184.0
1075.0 232.0
1075.0 278.0
1087.0 63.0
1087.0 107.0
1087.0 144.0
1087.0 181.0
1087.0 225.0
1087.0 268.0
1088.0 64.0
1088.0 112.0
1088.0 151.0
1088.0 195.0
1088.0 247.0
1105.0 55.0
1105.0 93.0
1105.0 124.0
1105.0 154.0
1105.0 185.0
1105.0 222.0
1105.0 259.0
1105.0 295.0
1114.0 55.0
1114.0 93.0
1114.0 127.0
1114.0 157.0
1114.0 190.0
1114.0 227.0
1114.0 266.0
1118.0 61.0
1118.0 105.0
1118.0 142.0
1118.0 179.0
1118.0 221.0
1118.0 263.0
1135.0 72.0
1135.0 118.0
1135.0 158.0
1135.0 210.0
1135.0 262.0
1156.0 145.0
1165.0 134.0
1172.0 135.0
1204.0 62.0
1204.0 105.0
1204.0 141.0
1204.0 177.0
1204.0 222.0
1204.0 265.0
1222.0 59.0
1222.0 100.0
1222.0 134.0
1222.0 168.0
1222.0 207.0
1222.0 247.0
1222.0 288.0
1226.0 56.0
1226.0 97.0
1226.0 129.0
1226.0 160.0
1226.0 197.0
1226.0 233.0
1226.0 269.0
1251.0 136.0
1254.0 60.0
1254.0 106.0
1254.0 142.0
1254.0 178.0
1254.0 222.0
1254.0 263.0
1337.0 60.0
1337.0 103.0
1337.0 138.0
1337.0 172.0
1337.0 214.0
1337.0 256.0
1337.0 299.0
1340.0 61.0
1340.0 106.0
1340.0 142.0
1340.0 178.0
1340.0 222.0
1340.0 266.0
1345.0 60.0
1345.0 103.0
1345.0 138.0
1345.0 173.0
1345.0 215.0
1345.0 258.0
1417.0 68.0
1417.0 115.0
1417.0 155.0
1417.0 206.0
1417.0 259.0
1418.0 62.0
1418.0 108.0
1418.0 144.0
1418.0 182.0
1418.0 227.0
1418.0 270.0
1423.0 62.0
1423.0 108.0
1423.0 146.0
1423.0 186.0
1423.0 232.0
1423.0 280.0
1442.0 9.0
1442.0 15.0
1442.0 21.0
1442.0 27.0
1442.0 33.0
1442.0 39.0
1442.0 45.0
1442.0 51.0
1442.0 57.0
1442.0 63.0
1442.0 69.0
1442.0 75.0
1442.0 81.0
1442.0 87.0
1442.0 93.0
1442.0 99.0
1442.0 104.0
1442.0 109.0
1442.0 114.0
1442.0 119.0
1442.0 124.0
1442.0 129.0
1442.0 134.0
1442.0 139.0
1442.0 144.0
1442.0 149.0
1442.0 154.0
1442.0 159.0
1442.0 164.0
1442.0 169.0
1442.0 175.0
1442.0 181.0
1442.0 187.0
1442.0 193.0
1442.0 199.0
1442.0 205.0
1442.0 211.0
1442.0 217.0
1442.0 223.0
1442.0 229.0
1442.0 235.0
1442.0 241.0
1442.0 247.0
1442.0 253.0
1442.0 259.0
1442.0 265.0
1442.0 271.0
1442.0 277.0
1442.0 283.0
1442.0 289.0
1442.0 295.0
1442.0 303.0
1442.0 311.0
1442.0 319.0
1442.0 327.0
1442.0 337.0
