232.0 297.0
232.0 390.0
235.0 311.0
241.0 276.0
241.0 363.0
334.0 279.0
334.0 369.0
347.0 84.0
347.0 130.0
347.0 172.0
347.0 204.0
347.0 228.0
347.0 250.0
347.0 271.0
347.0 292.0
347.0 313.0
347.0 334.0
347.0 355.0
347.0 376.0
347.0 397.0
366.0 305.0
383.0 306.0
449.0 294.0
456.0 82.0
456.0 126.0
456.0 171.0
456.0 203.0
456.0 227.0
456.0 248.0
456.0 269.0
456.0 291.0
456.0 312.0
456.0 333.0
456.0 354.0
456.0 375.0
456.0 396.0
466.0 267.0
466.0 336.0
475.0 285.0
475.0 367.0
478.0 277.0
478.0 357.0
589.0 288.0
589.0 374.0
590.0 375.0
591.0 81.0
591.0 122.0
591.0 164.0
591.0 196.0
591.0 220.0
591.0 239.0
591.0 258.0
591.0 278.0
591.0 298.0
591.0 318.0
591.0 338.0
591.0 358.0
591.0 378.0
591.0 398.0
599.0 88.0
599.0 136.0
599.0 179.0
599.0 209.0
599.0 231.0
599.0 252.0
599.0 273.0
599.0 293.0
599.0 314.0
599.0 335.0
599.0 356.0
599.0 376.0
599.0 397.0
601.0 283.0
601.0 376.0
605.0 279.0
605.0 377.0
612.0 261.0
612.0 329.0
612.0 395.0
613.0 285.0
613.0 370.0
625.0 244.0
625.0 307.0
625.0 368.0
632.0 281.0
632.0 368.0
680.0 9.0
680.0 15.0
680.0 21.0
680.0 28.0
680.0 36.0
680.0 44.0
680.0 52.0
680.0 60.0
680.0 68.0
680.0 76.0
680.0 82.0
680.0 88.0
680.0 94.0
680.0 100.0
680.0 106.0
680.0 112.0
680.0 118.0
680.0 124.0
680.0 130.0
680.0 136.0
680.0 142.0
680.0 148.0
680.0 154.0
680.0 160.0
680.0 166.0
680.0 172.0
680.0 176.0
680.0 181.0
680.0 186.0
680.0 191.0
680.0 196.0
680.0 201.0
680.0 206.0
680.0 210.0
680.0 214.0
680.0 218.0
680.0 222.0
680.0 226.0
680.0 230.0
680.0 234.0
680.0 238.0
680.0 242.0
680.0 246.0
680.0 250.0
680.0 254.0
680.0 258.0
680.0 262.0
680.0 266.0
680.0 270.0
680.0 274.0
680.0 278.0
680.0 282.0
680.0 286.0
680.0 290.0
680.0 294.0
680.0 298.0
680.0 302.0
680.0 306.0
680.0 310.0
680.0 314.0
680.0 318.0
680.0 322.0
680.0 326.0
680.0 330.0
680.0 334.0
680.0 338.0
680.0 342.0
680.0 346.0
680.0 350.0
680.0 354.0
680.0 358.0
680.0 362.0
680.0 366.0
680.0 370.0
680.0 374.0
680.0 378.0
680.0 382.0
680.0 386.0
680.0 390.0
680.0 394.0
714.0 77.0
714.0 118.0
714.0 157.0
714.0 190.0
714.0 217.0
714.0 238.0
714.0 258.0
714.0 277.0
714.0 297.0
714.0 317.0
714.0 337.0
714.0 357.0
714.0 376.0
714.0 396.0
719.0 271.0
719.0 343.0
725.0 44.0
725.0 73.0
725.0 99.0
725.0 126.0
725.0 151.0
725.0 177.0
725.0 199.0
725.0 220.0
725.0 237.0
725.0 253.0
725.0 269.0
725.0 285.0
725.0 301.0
725.0 317.0
725.0 334.0
725.0 351.0
725.0 367.0
725.0 383.0
725.0 400.0
726.0 263.0
726.0 329.0
726.0 392.0
729.0 304.0
729.0 394.0
734.0 271.0
734.0 377.0
735.0 42.0
735.0 69.0
735.0 96.0
735.0 122.0
735.0 148.0
735.0 175.0
735.0 198.0
735.0 219.0
735.0 236.0
735.0 253.0
735.0 269.0
735.0 285.0
735.0 301.0
735.0 318.0
735.0 334.0
735.0 350.0
735.0 365.0
735.0 382.0
735.0 399.0
736.0 76.0
736.0 119.0
736.0 160.0
736.0 193.0
736.0 219.0
736.0 240.0
736.0 262.0
736.0 283.0
736.0 303.0
736.0 324.0
736.0 344.0
736.0 365.0
736.0 387.0
738.0 94.0
738.0 143.0
738.0 184.0
738.0 216.0
738.0 239.0
738.0 261.0
738.0 283.0
738.0 304.0
738.0 326.0
738.0 348.0
738.0 370.0
738.0 392.0
743.0 382.0
744.0 283.0
744.0 364.0
754.0 272.0
754.0 370.0
762.0 287.0
762.0 370.0
763.0 6.0
763.0 11.0
763.0 16.0
763.0 20.0
763.0 24.0
763.0 28.0
763.0 32.0
763.0 36.0
763.0 40.0
763.0 44.0
763.0 48.0
763.0 52.0
763.0 56.0
763.0 60.0
763.0 64.0
763.0 68.0
763.0 72.0
763.0 76.0
763.0 80.0
763.0 84.0
763.0 88.0
763.0 92.0
763.0 96.0
763.0 100.0
763.0 104.0
763.0 108.0
763.0 112.0
763.0 116.0
763.0 120.0
763.0 124.0
763.0 128.0
763.0 132.0
763.0 136.0
763.0 140.0
763.0 144.0
763.0 148.0
763.0 152.0
763.0 156.0
763.0 160.0
763.0 164.0
763.0 167.0
763.0 171.0
763.0 175.0
763.0 178.0
763.0 182.0
763.0 186.0
763.0 190.0
763.0 193.0
763.0 197.0
763.0 200.0
763.0 204.0
763.0 207.0
763.0 210.0
763.0 213.0
763.0 216.0
763.0 219.0
763.0 222.0
763.0 225.0
763.0 228.0
763.0 231.0
763.0 234.0
763.0 237.0
763.0 240.0
763.0 243.0
763.0 246.0
763.0 249.0
763.0 252.0
763.0 255.0
763.0 258.0
763.0 261.0
763.0 264.0
763.0 267.0
763.0 270.0
763.0 273.0
763.0 276.0
763.0 279.0
763.0 282.0
763.0 285.0
763.0 288.0
763.0 291.0
763.0 294.0
763.0 297.0
763.0 300.0
763.0 303.0
763.0 306.0
763.0 309.0
763.0 312.0
763.0 315.0
763.0 318.0
763.0 321.0
763.0 324.0
763.0 327.0
763.0 330.0
763.0 333.0
763.0 336.0
763.0 339.0
763.0 342.0
763.0 345.0
763.0 348.0
763.0 351.0
763.0 354.0
763.0 357.0
763.0 360.0
763.0 363.0
763.0 366.0
763.0 369.0
763.0 372.0
763.0 375.0
763.0 378.0
763.0 381.0
763.0 384.0
763.0 387.0
763.0 390.0
763.0 393.0
763.0 396.0
819.0 283.0
819.0 379.0
841.0 94.0
841.0 146.0
841.0 185.0
841.0 217.0
841.0 241.0
841.0 265.0
841.0 289.0
841.0 312.0
841.0 336.0
841.0 360.0
841.0 385.0
842.0 98.0
842.0 151.0
842.0 193.0
842.0 225.0
842.0 249.0
842.0 273.0
842.0 296.0
842.0 320.0
842.0 344.0
842.0 368.0
842.0 391.0
843.0 86.0
843.0 134.0
843.0 178.0
843.0 210.0
843.0 233.0
843.0 255.0
843.0 277.0
843.0 298.0
843.0 320.0
843.0 342.0
843.0 364.0
843.0 385.0
850.0 273.0
850.0 351.0
851.0 240.0
851.0 288.0
851.0 331.0
851.0 378.0
852.0 82.0
852.0 123.0
852.0 164.0
852.0 195.0
852.0 222.0
852.0 242.0
852.0 262.0
852.0 282.0
852.0 302.0
852.0 322.0
852.0 342.0
852.0 363.0
852.0 382.0
857.0 77.0
857.0 115.0
857.0 151.0
857.0 185.0
857.0 212.0
857.0 232.0
857.0 250.0
857.0 269.0
857.0 287.0
857.0 305.0
857.0 324.0
857.0 342.0
857.0 360.0
857.0 379.0
857.0 399.0
860.0 73.0
860.0 112.0
860.0 148.0
860.0 182.0
860.0 209.0
860.0 229.0
860.0 248.0
860.0 267.0
860.0 286.0
860.0 304.0
860.0 323.0
860.0 343.0
860.0 362.0
860.0 380.0
860.0 399.0
861.0 89.0
861.0 141.0
861.0 182.0
861.0 214.0
861.0 237.0
861.0 260.0
861.0 281.0
861.0 304.0
861.0 326.0
861.0 348.0
861.0 370.0
861.0 392.0
863.0 277.0
863.0 355.0
864.0 277.0
864.0 367.0
866.0 33.0
866.0 52.0
866.0 72.0
866.0 90.0
866.0 107.0
866.0 125.0
866.0 142.0
866.0 160.0
866.0 177.0
866.0 192.0
866.0 207.0
866.0 221.0
866.0 233.0
866.0 244.0
866.0 256.0
866.0 267.0
866.0 279.0
866.0 290.0
866.0 302.0
866.0 313.0
866.0 324.0
866.0 336.0
866.0 348.0
866.0 360.0
866.0 372.0
866.0 384.0
866.0 396.0
870.0 255.0
870.0 321.0
880.0 45.0
880.0 74.0
880.0 102.0
880.0 129.0
880.0 156.0
880.0 182.0
880.0 206.0
880.0 226.0
880.0 243.0
880.0 260.0
880.0 277.0
880.0 295.0
880.0 312.0
880.0 329.0
880.0 345.0
880.0 361.0
880.0 379.0
880.0 396.0
881.0 269.0
881.0 347.0
883.0 300.0
883.0 387.0
886.0 277.0
886.0 348.0
889.0 265.0
889.0 348.0
893.0 281.0
893.0 365.0
894.0 247.0
894.0 310.0
894.0 368.0
903.0 314.0
941.0 92.0
941.0 140.0
941.0 183.0
941.0 216.0
941.0 241.0
941.0 265.0
941.0 289.0
941.0 313.0
941.0 337.0
941.0 360.0
941.0 385.0
949.0 81.0
949.0 122.0
949.0 160.0
949.0 191.0
949.0 218.0
949.0 239.0
949.0 259.0
949.0 278.0
949.0 298.0
949.0 317.0
949.0 337.0
949.0 357.0
949.0 376.0
949.0 395.0
950.0 91.0
950.0 139.0
950.0 182.0
950.0 215.0
950.0 238.0
950.0 261.0
950.0 283.0
950.0 304.0
950.0 325.0
950.0 347.0
950.0 369.0
950.0 390.0
951.0 264.0
951.0 333.0
959.0 93.0
959.0 143.0
959.0 186.0
959.0 219.0
959.0 243.0
959.0 267.0
959.0 290.0
959.0 312.0
959.0 335.0
959.0 358.0
959.0 379.0
965.0 282.0
965.0 393.0
973.0 75.0
973.0 116.0
973.0 154.0
973.0 186.0
973.0 214.0
973.0 235.0
973.0 255.0
973.0 274.0
973.0 294.0
973.0 314.0
973.0 334.0
973.0 354.0
973.0 374.0
973.0 394.0
985.0 260.0
985.0 320.0
985.0 377.0
989.0 271.0
989.0 360.0
991.0 82.0
991.0 123.0
991.0 162.0
991.0 192.0
991.0 219.0
991.0 239.0
991.0 259.0
991.0 280.0
991.0 300.0
991.0 320.0
991.0 340.0
991.0 360.0
991.0 380.0
992.0 282.0
992.0 368.0
994.0 277.0
994.0 379.0
998.0 333.0
1001.0 43.0
1001.0 72.0
1001.0 100.0
1001.0 128.0
1001.0 156.0
1001.0 182.0
1001.0 207.0
1001.0 227.0
1001.0 245.0
1001.0 262.0
1001.0 279.0
1001.0 296.0
1001.0 313.0
1001.0 330.0
1001.0 347.0
1001.0 364.0
1001.0 382.0
1010.0 366.0
1012.0 42.0
1012.0 71.0
1012.0 98.0
1012.0 126.0
1012.0 154.0
1012.0 180.0
1012.0 204.0
1012.0 224.0
1012.0 241.0
1012.0 258.0
1012.0 275.0
1012.0 291.0
1012.0 308.0
1012.0 325.0
1012.0 342.0
1012.0 358.0
1012.0 374.0
1012.0 390.0
1014.0 249.0
1014.0 306.0
1014.0 370.0
1016.0 46.0
1016.0 76.0
1016.0 107.0
1016.0 138.0
1016.0 169.0
1016.0 196.0
1016.0 220.0
1016.0 239.0
1016.0 258.0
1016.0 277.0
1016.0 295.0
1016.0 313.0
1016.0 332.0
1016.0 351.0
1016.0 369.0
1016.0 387.0
1018.0 260.0
1018.0 343.0
1022.0 281.0
1022.0 366.0
1031.0 281.0
1031.0 371.0
1038.0 43.0
1038.0 71.0
1038.0 97.0
1038.0 124.0
1038.0 151.0
1038.0 177.0
1038.0 200.0
1038.0 220.0
1038.0 237.0
1038.0 254.0
1038.0 271.0
1038.0 287.0
1038.0 304.0
1038.0 321.0
1038.0 338.0
1038.0 355.0
1038.0 372.0
1038.0 388.0
1068.0 85.0
1068.0 129.0
1068.0 176.0
1068.0 209.0
1068.0 233.0
1068.0 254.0
1068.0 275.0
1068.0 295.0
1068.0 316.0
1068.0 337.0
1068.0 358.0
1068.0 379.0
1075.0 87.0
1075.0 134.0
1075.0 180.0
1075.0 213.0
1075.0 237.0
1075.0 259.0
1075.0 281.0
1075.0 303.0
1075.0 325.0
1075.0 347.0
1075.0 370.0
1075.0 392.0
1087.0 91.0
1087.0 139.0
1087.0 182.0
1087.0 214.0
1087.0 237.0
1087.0 259.0
1087.0 281.0
1087.0 303.0
1087.0 325.0
1087.0 346.0
1087.0 368.0
1087.0 389.0
1088.0 85.0
1088.0 131.0
1088.0 179.0
1088.0 212.0
1088.0 235.0
1088.0 257.0
1088.0 279.0
1088.0 301.0
1088.0 322.0
1088.0 345.0
1088.0 368.0
1088.0 390.0
1105.0 66.0
1105.0 104.0
1105.0 138.0
1105.0 174.0
1105.0 201.0
1105.0 224.0
1105.0 243.0
1105.0 261.0
1105.0 279.0
1105.0 296.0
1105.0 315.0
1105.0 334.0
1105.0 353.0
1105.0 371.0
1105.0 389.0
1114.0 81.0
1114.0 123.0
1114.0 165.0
1114.0 196.0
1114.0 223.0
1114.0 244.0
1114.0 265.0
1114.0 287.0
1114.0 307.0
1114.0 328.0
1114.0 349.0
1114.0 370.0
1114.0 390.0
1115.0 265.0
1115.0 343.0
1118.0 90.0
1118.0 138.0
1118.0 181.0
1118.0 215.0
1118.0 239.0
1118.0 262.0
1118.0 283.0
1118.0 306.0
1118.0 328.0
1118.0 351.0
1118.0 374.0
1118.0 396.0
1133.0 272.0
1133.0 362.0
1134.0 263.0
1134.0 332.0
1135.0 90.0
1135.0 142.0
1135.0 184.0
1135.0 217.0
1135.0 241.0
1135.0 264.0
1135.0 286.0
1135.0 308.0
1135.0 331.0
1135.0 354.0
1135.0 376.0
1136.0 329.0
1144.0 368.0
1148.0 276.0
1148.0 351.0
1156.0 42.0
1156.0 71.0
1156.0 99.0
1156.0 127.0
1156.0 155.0
1156.0 181.0
1156.0 205.0
1156.0 225.0
1156.0 242.0
1156.0 260.0
1156.0 277.0
1156.0 294.0
1156.0 311.0
1156.0 328.0
1156.0 345.0
1156.0 362.0
1156.0 379.0
1156.0 396.0
1165.0 43.0
1165.0 75.0
1165.0 104.0
1165.0 135.0
1165.0 164.0
1165.0 190.0
1165.0 214.0
1165.0 233.0
1165.0 251.0
1165.0 270.0
1165.0 289.0
1165.0 307.0
1165.0 324.0
1165.0 342.0
1165.0 360.0
1165.0 379.0
1165.0 398.0
1172.0 42.0
1172.0 69.0
1172.0 96.0
1172.0 124.0
1172.0 152.0
1172.0 179.0
1172.0 202.0
1172.0 222.0
1172.0 240.0
1172.0 257.0
1172.0 274.0
1172.0 290.0
1172.0 307.0
1172.0 324.0
1172.0 341.0
1172.0 358.0
1172.0 376.0
1172.0 393.0
1174.0 280.0
1174.0 358.0
1204.0 89.0
1204.0 136.0
1204.0 181.0
1204.0 215.0
1204.0 238.0
1204.0 260.0
1204.0 282.0
1204.0 303.0
1204.0 325.0
1204.0 347.0
1204.0 369.0
1204.0 390.0
1222.0 83.0
1222.0 125.0
1222.0 167.0
1222.0 199.0
1222.0 225.0
1222.0 245.0
1222.0 266.0
1222.0 286.0
1222.0 307.0
1222.0 328.0
1222.0 349.0
1222.0 368.0
1222.0 389.0
1223.0 361.0
1225.0 268.0
1225.0 319.0
1225.0 385.0
1226.0 75.0
1226.0 116.0
1226.0 158.0
1226.0 191.0
1226.0 218.0
1226.0 239.0
1226.0 259.0
1226.0 278.0
1226.0 297.0
1226.0 317.0
1226.0 337.0
1226.0 357.0
1226.0 377.0
1226.0 396.0
1236.0 285.0
1236.0 360.0
1241.0 288.0
1241.0 361.0
1243.0 274.0
1243.0 355.0
1247.0 380.0
1251.0 42.0
1251.0 70.0
1251.0 96.0
1251.0 123.0
1251.0 150.0
1251.0 176.0
1251.0 200.0
1251.0 221.0
1251.0 238.0
1251.0 255.0
1251.0 272.0
1251.0 288.0
1251.0 304.0
1251.0 321.0
1251.0 339.0
1251.0 355.0
1251.0 372.0
1251.0 388.0
1252.0 306.0
1252.0 393.0
1253.0 42.0
1253.0 73.0
1253.0 105.0
1253.0 137.0
1253.0 169.0
1253.0 196.0
1253.0 219.0
1253.0 238.0
1253.0 257.0
1253.0 275.0
1253.0 294.0
1253.0 313.0
1253.0 332.0
1253.0 350.0
1253.0 369.0
1253.0 388.0
1254.0 82.0
1254.0 126.0
1254.0 172.0
1254.0 205.0
1254.0 229.0
1254.0 250.0
1254.0 271.0
1254.0 293.0
1254.0 312.0
1254.0 333.0
1254.0 355.0
1254.0 376.0
1254.0 398.0
1257.0 269.0
1257.0 347.0
1262.0 270.0
1262.0 347.0
1263.0 292.0
1271.0 323.0
1300.0 285.0
1300.0 370.0
1305.0 276.0
1305.0 363.0
1337.0 82.0
1337.0 125.0
1337.0 169.0
1337.0 202.0
1337.0 227.0
1337.0 248.0
1337.0 269.0
1337.0 290.0
1337.0 311.0
1337.0 332.0
1337.0 353.0
1337.0 374.0
1337.0 396.0
1340.0 82.0
1340.0 125.0
1340.0 169.0
1340.0 201.0
1340.0 226.0
1340.0 247.0
1340.0 268.0
1340.0 289.0
1340.0 309.0
1340.0 329.0
1340.0 349.0
1340.0 369.0
1340.0 390.0
1345.0 89.0
1345.0 136.0
1345.0 179.0
1345.0 212.0
1345.0 235.0
1345.0 257.0
1345.0 279.0
1345.0 303.0
1345.0 325.0
1345.0 348.0
1345.0 370.0
1345.0 392.0
1355.0 249.0
1355.0 303.0
1355.0 360.0
1365.0 282.0
1365.0 363.0
1388.0 370.0
1390.0 42.0
1390.0 70.0
1390.0 97.0
1390.0 124.0
1390.0 151.0
1390.0 177.0
1390.0 200.0
1390.0 221.0
1390.0 238.0
1390.0 255.0
1390.0 272.0
1390.0 288.0
1390.0 305.0
1390.0 322.0
1390.0 339.0
1390.0 356.0
1390.0 372.0
1390.0 389.0
1398.0 381.0
1404.0 44.0
1404.0 74.0
1404.0 103.0
1404.0 131.0
1404.0 159.0
1404.0 185.0
1404.0 209.0
1404.0 229.0
1404.0 246.0
1404.0 264.0
1404.0 282.0
1404.0 300.0
1404.0 318.0
1404.0 336.0
1404.0 354.0
1404.0 372.0
1404.0 390.0
1415.0 288.0
1417.0 91.0
1417.0 142.0
1417.0 185.0
1417.0 218.0
1417.0 242.0
1417.0 265.0
1417.0 289.0
1417.0 313.0
1417.0 337.0
1417.0 361.0
1417.0 385.0
1418.0 89.0
1418.0 136.0
1418.0 181.0
1418.0 214.0
1418.0 237.0
1418.0 259.0
1418.0 280.0
1418.0 302.0
1418.0 324.0
1418.0 346.0
1418.0 368.0
1418.0 389.0
1419.0 285.0
1419.0 366.0
1423.0 88.0
1423.0 131.0
1423.0 178.0
1423.0 210.0
1423.0 233.0
1423.0 254.0
1423.0 275.0
1423.0 296.0
1423.0 317.0
1423.0 338.0
1423.0 359.0
1423.0 380.0
1433.0 279.0
1433.0 363.0
1434.0 290.0
1436.0 278.0
1436.0 368.0
1439.0 337.0
1442.0 6.0
1442.0 11.0
1442.0 14.0
1442.0 19.0
1442.0 22.0
1442.0 27.0
1442.0 30.0
1442.0 35.0
1442.0 38.0
1442.0 43.0
1442.0 46.0
1442.0 51.0
1442.0 54.0
1442.0 59.0
1442.0 62.0
1442.0 67.0
1442.0 70.0
1442.0 75.0
1442.0 78.0
1442.0 83.0
1442.0 86.0
1442.0 91.0
1442.0 94.0
1442.0 99.0
1442.0 102.0
1442.0 106.0
1442.0 110.0
1442.0 114.0
1442.0 118.0
1442.0 122.0
1442.0 126.0
1442.0 130.0
1442.0 134.0
1442.0 138.0
1442.0 142.0
1442.0 146.0
1442.0 150.0
1442.0 154.0
1442.0 158.0
1442.0 162.0
1442.0 166.0
1442.0 170.0
1442.0 174.0
1442.0 177.0
1442.0 181.0
1442.0 185.0
1442.0 188.0
1442.0 192.0
1442.0 196.0
1442.0 200.0
1442.0 203.0
1442.0 207.0
1442.0 210.0
1442.0 214.0
1442.0 217.0
1442.0 220.0
1442.0 223.0
1442.0 226.0
1442.0 229.0
1442.0 232.0
1442.0 235.0
1442.0 238.0
1442.0 241.0
1442.0 244.0
1442.0 247.0
1442.0 250.0
1442.0 253.0
1442.0 256.0
1442.0 259.0
1442.0 262.0
1442.0 265.0
1442.0 268.0
1442.0 271.0
1442.0 274.0
1442.0 277.0
1442.0 280.0
1442.0 283.0
1442.0 286.0
1442.0 289.0
1442.0 292.0
1442.0 295.0
1442.0 298.0
1442.0 301.0
1442.0 304.0
1442.0 307.0
1442.0 310.0
1442.0 313.0
1442.0 316.0
1442.0 319.0
1442.0 322.0
1442.0 325.0
1442.0 328.0
1442.0 331.0
1442.0 334.0
1442.0 337.0
1442.0 340.0
1442.0 343.0
1442.0 346.0
1442.0 349.0
1442.0 352.0
1442.0 355.0
1442.0 358.0
1442.0 361.0
1442.0 364.0
1442.0 367.0
1442.0 370.0
1442.0 373.0
1442.0 376.0
1442.0 379.0
1442.0 382.0
1442.0 385.0
1442.0 388.0
1442.0 392.0
1442.0 396.0
1445.0 302.0
1446.0 271.0
1446.0 353.0
1447.0 288.0
