241.0 157.0
347.0 39.0
347.0 61.0
347.0 83.0
347.0 104.0
347.0 125.0
347.0 146.0
347.0 167.0
347.0 188.0
347.0 214.0
347.0 247.0
347.0 286.0
347.0 330.0
347.0 374.0
456.0 40.0
456.0 61.0
456.0 82.0
456.0 103.0
456.0 125.0
456.0 146.0
456.0 167.0
456.0 189.0
456.0 215.0
456.0 248.0
456.0 287.0
456.0 331.0
456.0 376.0
466.0 156.0
475.0 126.0
478.0 151.0
591.0 39.0
591.0 59.0
591.0 78.0
591.0 99.0
591.0 120.0
591.0 140.0
591.0 160.0
591.0 180.0
591.0 204.0
591.0 232.0
591.0 264.0
591.0 303.0
591.0 342.0
591.0 382.0
599.0 39.0
599.0 60.0
599.0 81.0
599.0 102.0
599.0 122.0
599.0 143.0
599.0 165.0
599.0 186.0
599.0 210.0
599.0 241.0
599.0 281.0
599.0 329.0
599.0 377.0
605.0 168.0
612.0 105.0
612.0 186.0
625.0 89.0
625.0 165.0
680.0 7.0
680.0 12.0
680.0 16.0
680.0 20.0
680.0 24.0
680.0 28.0
680.0 32.0
680.0 36.0
680.0 40.0
680.0 44.0
680.0 48.0
680.0 52.0
680.0 56.0
680.0 60.0
680.0 64.0
680.0 68.0
680.0 72.0
680.0 76.0
680.0 80.0
680.0 84.0
680.0 88.0
680.0 92.0
680.0 96.0
680.0 100.0
680.0 104.0
680.0 108.0
680.0 112.0
680.0 116.0
680.0 120.0
680.0 124.0
680.0 128.0
680.0 132.0
680.0 136.0
680.0 140.0
680.0 144.0
680.0 148.0
680.0 152.0
680.0 156.0
680.0 160.0
680.0 164.0
680.0 168.0
680.0 172.0
680.0 176.0
680.0 180.0
680.0 184.0
680.0 188.0
680.0 192.0
680.0 196.0
680.0 200.0
680.0 204.0
680.0 208.0
680.0 213.0
680.0 217.0
680.0 223.0
680.0 228.0
680.0 233.0
680.0 238.0
680.0 243.0
680.0 248.0
680.0 253.0
680.0 258.0
680.0 263.0
680.0 269.0
680.0 275.0
680.0 281.0
680.0 287.0
680.0 293.0
680.0 299.0
680.0 305.0
680.0 311.0
680.0 317.0
680.0 323.0
680.0 329.0
680.0 335.0
680.0 341.0
680.0 347.0
680.0 353.0
680.0 359.0
680.0 365.0
680.0 371.0
680.0 377.0
680.0 383.0
680.0 389.0
680.0 395.0
714.0 44.0
714.0 70.0
714.0 95.0
714.0 121.0
714.0 147.0
714.0 172.0
714.0 197.0
714.0 224.0
714.0 260.0
714.0 326.0
725.0 40.0
725.0 60.0
725.0 80.0
725.0 100.0
725.0 119.0
725.0 139.0
725.0 159.0
725.0 178.0
725.0 200.0
725.0 224.0
725.0 249.0
725.0 283.0
725.0 317.0
725.0 352.0
726.0 126.0
735.0 38.0
735.0 58.0
735.0 77.0
735.0 97.0
735.0 117.0
735.0 137.0
735.0 157.0
735.0 177.0
735.0 198.0
735.0 222.0
735.0 249.0
735.0 281.0
735.0 314.0
735.0 346.0
735.0 387.0
736.0 38.0
736.0 59.0
736.0 80.0
736.0 102.0
736.0 123.0
736.0 144.0
736.0 165.0
736.0 187.0
736.0 212.0
736.0 244.0
736.0 281.0
736.0 324.0
736.0 365.0
738.0 44.0
738.0 73.0
738.0 102.0
738.0 130.0
738.0 159.0
738.0 187.0
738.0 215.0
738.0 254.0
754.0 147.0
763.0 6.0
763.0 10.0
763.0 14.0
763.0 17.0
763.0 21.0
763.0 24.0
763.0 28.0
763.0 31.0
763.0 34.0
763.0 37.0
763.0 40.0
763.0 43.0
763.0 46.0
763.0 49.0
763.0 52.0
763.0 55.0
763.0 58.0
763.0 61.0
763.0 64.0
763.0 67.0
763.0 70.0
763.0 73.0
763.0 76.0
763.0 79.0
763.0 82.0
763.0 85.0
763.0 88.0
763.0 91.0
763.0 94.0
763.0 97.0
763.0 100.0
763.0 103.0
763.0 106.0
763.0 109.0
763.0 112.0
763.0 115.0
763.0 118.0
763.0 121.0
763.0 124.0
763.0 127.0
763.0 130.0
763.0 133.0
763.0 136.0
763.0 139.0
763.0 142.0
763.0 145.0
763.0 148.0
763.0 151.0
763.0 154.0
763.0 157.0
763.0 160.0
763.0 163.0
763.0 166.0
763.0 169.0
763.0 172.0
763.0 175.0
763.0 178.0
763.0 181.0
763.0 184.0
763.0 188.0
763.0 192.0
763.0 196.0
763.0 199.0
763.0 203.0
763.0 207.0
763.0 210.0
763.0 214.0
763.0 218.0
763.0 222.0
763.0 226.0
763.0 229.0
763.0 233.0
763.0 237.0
763.0 241.0
763.0 245.0
763.0 249.0
763.0 253.0
763.0 257.0
763.0 261.0
763.0 265.0
763.0 269.0
763.0 273.0
763.0 277.0
763.0 281.0
763.0 285.0
763.0 289.0
763.0 293.0
763.0 297.0
763.0 301.0
763.0 305.0
763.0 309.0
763.0 313.0
763.0 317.0
763.0 321.0
763.0 325.0
763.0 329.0
763.0 333.0
763.0 337.0
763.0 341.0
763.0 345.0
763.0 349.0
763.0 353.0
763.0 357.0
763.0 361.0
763.0 365.0
763.0 369.0
763.0 373.0
763.0 377.0
763.0 381.0
763.0 385.0
763.0 390.0
763.0 395.0
841.0 40.0
841.0 64.0
841.0 88.0
841.0 112.0
841.0 136.0
841.0 160.0
841.0 183.0
841.0 211.0
841.0 251.0
841.0 299.0
841.0 356.0
842.0 43.0
842.0 76.0
842.0 108.0
842.0 140.0
842.0 171.0
842.0 204.0
842.0 244.0
843.0 40.0
843.0 63.0
843.0 85.0
843.0 107.0
843.0 129.0
843.0 151.0
843.0 172.0
843.0 195.0
843.0 222.0
843.0 257.0
843.0 303.0
843.0 351.0
852.0 42.0
852.0 68.0
852.0 93.0
852.0 118.0
852.0 144.0
852.0 170.0
852.0 196.0
852.0 224.0
852.0 259.0
852.0 341.0
857.0 43.0
857.0 68.0
857.0 92.0
857.0 116.0
857.0 140.0
857.0 166.0
857.0 190.0
857.0 214.0
857.0 244.0
857.0 319.0
860.0 38.0
860.0 57.0
860.0 77.0
860.0 97.0
860.0 117.0
860.0 137.0
860.0 157.0
860.0 177.0
860.0 198.0
860.0 222.0
860.0 253.0
860.0 287.0
860.0 329.0
860.0 370.0
861.0 39.0
861.0 62.0
861.0 85.0
861.0 107.0
861.0 129.0
861.0 151.0
861.0 173.0
861.0 197.0
861.0 228.0
861.0 265.0
861.0 313.0
861.0 365.0
866.0 28.0
866.0 42.0
866.0 55.0
866.0 68.0
866.0 81.0
866.0 94.0
866.0 107.0
866.0 120.0
866.0 133.0
866.0 146.0
866.0 159.0
866.0 172.0
866.0 185.0
866.0 199.0
866.0 213.0
866.0 228.0
866.0 244.0
866.0 261.0
866.0 281.0
866.0 300.0
866.0 320.0
866.0 339.0
866.0 360.0
866.0 381.0
870.0 94.0
870.0 173.0
880.0 41.0
880.0 62.0
880.0 82.0
880.0 102.0
880.0 122.0
880.0 143.0
880.0 164.0
880.0 185.0
880.0 209.0
880.0 235.0
880.0 267.0
880.0 301.0
880.0 335.0
880.0 376.0
881.0 114.0
889.0 125.0
894.0 89.0
894.0 170.0
941.0 44.0
941.0 75.0
941.0 105.0
941.0 135.0
941.0 165.0
941.0 195.0
941.0 233.0
949.0 43.0
949.0 69.0
949.0 95.0
949.0 121.0
949.0 146.0
949.0 171.0
949.0 197.0
949.0 225.0
949.0 268.0
950.0 43.0
950.0 72.0
950.0 100.0
950.0 129.0
950.0 159.0
950.0 188.0
950.0 220.0
950.0 274.0
959.0 43.0
959.0 73.0
959.0 104.0
959.0 134.0
959.0 164.0
959.0 194.0
959.0 225.0
973.0 41.0
973.0 67.0
973.0 93.0
973.0 119.0
973.0 144.0
973.0 169.0
973.0 195.0
973.0 223.0
973.0 258.0
973.0 329.0
989.0 191.0
991.0 42.0
991.0 69.0
991.0 95.0
991.0 121.0
991.0 147.0
991.0 173.0
991.0 199.0
991.0 228.0
991.0 269.0
1001.0 39.0
1001.0 61.0
1001.0 83.0
1001.0 104.0
1001.0 125.0
1001.0 146.0
1001.0 167.0
1001.0 188.0
1001.0 213.0
1001.0 239.0
1001.0 274.0
1001.0 309.0
1001.0 344.0
1001.0 389.0
1012.0 37.0
1012.0 58.0
1012.0 79.0
1012.0 100.0
1012.0 121.0
1012.0 142.0
1012.0 163.0
1012.0 184.0
1012.0 210.0
1012.0 236.0
1012.0 269.0
1012.0 304.0
1012.0 339.0
1012.0 381.0
1014.0 94.0
1014.0 172.0
1016.0 40.0
1016.0 64.0
1016.0 88.0
1016.0 112.0
1016.0 136.0
1016.0 160.0
1016.0 184.0
1016.0 212.0
1016.0 240.0
1016.0 279.0
1016.0 319.0
1016.0 364.0
1018.0 107.0
1022.0 180.0
1031.0 174.0
1038.0 37.0
1038.0 58.0
1038.0 78.0
1038.0 98.0
1038.0 118.0
1038.0 138.0
1038.0 158.0
1038.0 178.0
1038.0 201.0
1038.0 225.0
1038.0 250.0
1038.0 285.0
1038.0 320.0
1038.0 357.0
1068.0 43.0
1068.0 72.0
1068.0 101.0
1068.0 129.0
1068.0 157.0
1068.0 185.0
1068.0 213.0
1068.0 249.0
1075.0 44.0
1075.0 74.0
1075.0 104.0
1075.0 133.0
1075.0 162.0
1075.0 192.0
1075.0 222.0
1087.0 44.0
1087.0 73.0
1087.0 101.0
1087.0 129.0
1087.0 157.0
1087.0 185.0
1087.0 213.0
1087.0 253.0
1088.0 43.0
1088.0 72.0
1088.0 103.0
1088.0 132.0
1088.0 161.0
1088.0 191.0
1088.0 221.0
1105.0 41.0
1105.0 65.0
1105.0 88.0
1105.0 111.0
1105.0 134.0
1105.0 157.0
1105.0 181.0
1105.0 205.0
1105.0 232.0
1105.0 269.0
1105.0 329.0
1114.0 42.0
1114.0 69.0
1114.0 97.0
1114.0 125.0
1114.0 153.0
1114.0 180.0
1114.0 206.0
1114.0 238.0
1114.0 312.0
1118.0 43.0
1118.0 73.0
1118.0 103.0
1118.0 133.0
1118.0 163.0
1118.0 193.0
1118.0 224.0
1134.0 126.0
1135.0 44.0
1135.0 74.0
1135.0 106.0
1135.0 138.0
1135.0 170.0
1135.0 202.0
1135.0 239.0
1148.0 122.0
1156.0 37.0
1156.0 59.0
1156.0 80.0
1156.0 101.0
1156.0 121.0
1156.0 142.0
1156.0 163.0
1156.0 185.0
1156.0 211.0
1156.0 237.0
1156.0 269.0
1156.0 303.0
1156.0 337.0
1156.0 377.0
1165.0 37.0
1165.0 59.0
1165.0 80.0
1165.0 101.0
1165.0 122.0
1165.0 144.0
1165.0 166.0
1165.0 188.0
1165.0 214.0
1165.0 242.0
1165.0 280.0
1165.0 319.0
1165.0 362.0
1172.0 37.0
1172.0 59.0
1172.0 80.0
1172.0 101.0
1172.0 122.0
1172.0 143.0
1172.0 164.0
1172.0 185.0
1172.0 210.0
1172.0 236.0
1172.0 269.0
1172.0 305.0
1172.0 341.0
1172.0 386.0
1204.0 44.0
1204.0 73.0
1204.0 102.0
1204.0 130.0
1204.0 159.0
1204.0 188.0
1204.0 218.0
1204.0 259.0
1222.0 43.0
1222.0 71.0
1222.0 98.0
1222.0 126.0
1222.0 154.0
1222.0 182.0
1222.0 210.0
1222.0 244.0
1222.0 335.0
1226.0 42.0
1226.0 68.0
1226.0 94.0
1226.0 120.0
1226.0 147.0
1226.0 173.0
1226.0 200.0
1226.0 231.0
1226.0 275.0
1226.0 345.0
1251.0 38.0
1251.0 59.0
1251.0 79.0
1251.0 100.0
1251.0 121.0
1251.0 142.0
1251.0 163.0
1251.0 184.0
1251.0 208.0
1251.0 233.0
1251.0 263.0
1251.0 296.0
1251.0 331.0
1251.0 371.0
1253.0 39.0
1253.0 62.0
1253.0 85.0
1253.0 108.0
1253.0 131.0
1253.0 154.0
1253.0 177.0
1253.0 204.0
1253.0 234.0
1253.0 272.0
1253.0 312.0
1253.0 355.0
1254.0 42.0
1254.0 70.0
1254.0 98.0
1254.0 126.0
1254.0 154.0
1254.0 182.0
1254.0 210.0
1254.0 244.0
1254.0 338.0
1262.0 132.0
1337.0 42.0
1337.0 70.0
1337.0 98.0
1337.0 126.0
1337.0 154.0
1337.0 182.0
1337.0 210.0
1337.0 244.0
1337.0 337.0
1340.0 41.0
1340.0 69.0
1340.0 97.0
1340.0 125.0
1340.0 153.0
1340.0 181.0
1340.0 209.0
1340.0 243.0
1340.0 342.0
1345.0 42.0
1345.0 71.0
1345.0 99.0
1345.0 127.0
1345.0 157.0
1345.0 186.0
1345.0 214.0
1345.0 251.0
1390.0 38.0
1390.0 59.0
1390.0 79.0
1390.0 100.0
1390.0 121.0
1390.0 142.0
1390.0 163.0
1390.0 184.0
1390.0 207.0
1390.0 232.0
1390.0 263.0
1390.0 297.0
1390.0 331.0
1390.0 372.0
1404.0 40.0
1404.0 62.0
1404.0 84.0
1404.0 106.0
1404.0 128.0
1404.0 149.0
1404.0 170.0
1404.0 192.0
1404.0 217.0
1404.0 244.0
1404.0 280.0
1404.0 315.0
1404.0 352.0
1417.0 46.0
1417.0 78.0
1417.0 110.0
1417.0 142.0
1417.0 174.0
1417.0 207.0
1417.0 249.0
1418.0 43.0
1418.0 72.0
1418.0 102.0
1418.0 131.0
1418.0 160.0
1418.0 190.0
1418.0 219.0
1418.0 264.0
1423.0 42.0
1423.0 71.0
1423.0 99.0
1423.0 127.0
1423.0 155.0
1423.0 183.0
1423.0 211.0
1423.0 246.0
1442.0 6.0
1442.0 11.0
1442.0 14.0
1442.0 19.0
1442.0 22.0
1442.0 27.0
1442.0 30.0
1442.0 35.0
1442.0 38.0
1442.0 43.0
1442.0 47.0
1442.0 51.0
1442.0 55.0
1442.0 59.0
1442.0 63.0
1442.0 67.0
1442.0 71.0
1442.0 75.0
1442.0 79.0
1442.0 83.0
1442.0 87.0
1442.0 91.0
1442.0 95.0
1442.0 99.0
1442.0 103.0
1442.0 107.0
1442.0 111.0
1442.0 115.0
1442.0 119.0
1442.0 123.0
1442.0 127.0
1442.0 131.0
1442.0 135.0
1442.0 139.0
1442.0 143.0
1442.0 147.0
1442.0 151.0
1442.0 155.0
1442.0 159.0
1442.0 163.0
1442.0 167.0
1442.0 171.0
1442.0 175.0
1442.0 179.0
1442.0 183.0
1442.0 187.0
1442.0 191.0
1442.0 195.0
1442.0 199.0
1442.0 203.0
1442.0 207.0
1442.0 211.0
1442.0 215.0
1442.0 219.0
1442.0 223.0
1442.0 227.0
1442.0 231.0
1442.0 235.0
1442.0 239.0
1442.0 243.0
1442.0 248.0
1442.0 253.0
1442.0 259.0
1442.0 264.0
1442.0 269.0
1442.0 274.0
1442.0 279.0
1442.0 284.0
1442.0 289.0
1442.0 294.0
1442.0 299.0
1442.0 304.0
1442.0 309.0
1442.0 314.0
1442.0 319.0
1442.0 324.0
1442.0 329.0
1442.0 334.0
1442.0 339.0
1442.0 345.0
1442.0 351.0
1442.0 357.0
1442.0 363.0
1442.0 369.0
1442.0 375.0
1442.0 381.0
1442.0 387.0
1442.0 393.0
