241.0 123.0
334.0 132.0
347.0 36.0
347.0 54.0
347.0 71.0
347.0 88.0
347.0 105.0
347.0 122.0
347.0 141.0
347.0 166.0
347.0 194.0
347.0 232.0
407.0 138.0
456.0 36.0
456.0 54.0
456.0 72.0
456.0 90.0
456.0 108.0
456.0 126.0
456.0 146.0
456.0 172.0
456.0 201.0
466.0 117.0
475.0 107.0
478.0 102.0
591.0 35.0
591.0 51.0
591.0 68.0
591.0 84.0
591.0 100.0
591.0 117.0
591.0 133.0
591.0 152.0
591.0 175.0
591.0 200.0
591.0 232.0
599.0 36.0
599.0 54.0
599.0 72.0
599.0 89.0
599.0 107.0
599.0 124.0
599.0 142.0
599.0 166.0
599.0 192.0
599.0 226.0
605.0 111.0
612.0 98.0
625.0 79.0
671.0 80.0
671.0 137.0
677.0 106.0
679.0 105.0
680.0 6.0
680.0 10.0
680.0 14.0
680.0 17.0
680.0 21.0
680.0 24.0
680.0 28.0
680.0 31.0
680.0 34.0
680.0 37.0
680.0 40.0
680.0 43.0
680.0 46.0
680.0 49.0
680.0 52.0
680.0 55.0
680.0 58.0
680.0 61.0
680.0 64.0
680.0 67.0
680.0 70.0
680.0 73.0
680.0 76.0
680.0 79.0
680.0 82.0
680.0 85.0
680.0 88.0
680.0 91.0
680.0 94.0
680.0 97.0
680.0 100.0
680.0 103.0
680.0 106.0
680.0 109.0
680.0 112.0
680.0 115.0
680.0 118.0
680.0 121.0
680.0 124.0
680.0 127.0
680.0 130.0
680.0 133.0
680.0 136.0
680.0 139.0
680.0 142.0
680.0 146.0
680.0 150.0
680.0 154.0
680.0 157.0
680.0 161.0
680.0 165.0
680.0 168.0
680.0 172.0
680.0 176.0
680.0 180.0
680.0 184.0
680.0 187.0
680.0 191.0
680.0 195.0
680.0 198.0
680.0 202.0
680.0 206.0
680.0 210.0
680.0 214.0
680.0 217.0
680.0 221.0
680.0 225.0
680.0 228.0
680.0 232.0
680.0 236.0
680.0 240.0
680.0 244.0
680.0 247.0
680.0 251.0
680.0 255.0
680.0 258.0
680.0 262.0
680.0 266.0
680.0 270.0
680.0 274.0
680.0 278.0
680.0 282.0
680.0 286.0
680.0 290.0
680.0 294.0
680.0 298.0
680.0 302.0
680.0 306.0
680.0 310.0
680.0 314.0
680.0 318.0
680.0 322.0
680.0 326.0
680.0 330.0
680.0 334.0
680.0 338.0
680.0 342.0
680.0 346.0
680.0 350.0
680.0 354.0
680.0 358.0
680.0 362.0
680.0 366.0
680.0 370.0
680.0 374.0
680.0 378.0
680.0 382.0
680.0 386.0
680.0 390.0
680.0 394.0
695.0 129.0
698.0 138.0
704.0 134.0
714.0 43.0
714.0 67.0
714.0 92.0
714.0 117.0
714.0 139.0
714.0 164.0
714.0 189.0
714.0 213.0
714.0 238.0
714.0 264.0
714.0 290.0
714.0 313.0
714.0 335.0
714.0 357.0
714.0 379.0
714.0 400.0
717.0 110.0
725.0 42.0
725.0 66.0
725.0 91.0
725.0 115.0
725.0 138.0
725.0 165.0
725.0 192.0
725.0 227.0
726.0 119.0
735.0 40.0
735.0 64.0
735.0 89.0
735.0 113.0
735.0 136.0
735.0 163.0
735.0 188.0
735.0 225.0
736.0 35.0
736.0 52.0
736.0 69.0
736.0 87.0
736.0 104.0
736.0 122.0
736.0 141.0
736.0 165.0
736.0 193.0
736.0 231.0
738.0 43.0
738.0 70.0
738.0 98.0
738.0 124.0
738.0 149.0
738.0 176.0
738.0 204.0
738.0 232.0
738.0 260.0
738.0 288.0
738.0 312.0
738.0 335.0
738.0 357.0
738.0 380.0
754.0 107.0
763.0 6.0
763.0 10.0
763.0 13.0
763.0 17.0
763.0 20.0
763.0 24.0
763.0 27.0
763.0 30.0
763.0 33.0
763.0 36.0
763.0 39.0
763.0 42.0
763.0 45.0
763.0 48.0
763.0 51.0
763.0 54.0
763.0 57.0
763.0 60.0
763.0 63.0
763.0 66.0
763.0 69.0
763.0 72.0
763.0 75.0
763.0 78.0
763.0 81.0
763.0 84.0
763.0 87.0
763.0 90.0
763.0 93.0
763.0 96.0
763.0 99.0
763.0 102.0
763.0 105.0
763.0 108.0
763.0 111.0
763.0 114.0
763.0 117.0
763.0 120.0
763.0 123.0
763.0 126.0
763.0 130.0
763.0 134.0
763.0 138.0
763.0 142.0
763.0 146.0
763.0 150.0
763.0 154.0
763.0 158.0
763.0 162.0
763.0 166.0
763.0 170.0
763.0 174.0
763.0 178.0
763.0 182.0
763.0 187.0
763.0 191.0
763.0 196.0
763.0 202.0
763.0 208.0
763.0 214.0
763.0 220.0
763.0 227.0
763.0 235.0
763.0 397.0
801.0 99.0
827.0 76.0
827.0 130.0
833.0 132.0
841.0 36.0
841.0 56.0
841.0 75.0
841.0 94.0
841.0 113.0
841.0 132.0
841.0 160.0
841.0 190.0
842.0 43.0
842.0 73.0
842.0 106.0
842.0 133.0
842.0 163.0
842.0 193.0
842.0 223.0
842.0 252.0
842.0 281.0
842.0 308.0
842.0 332.0
842.0 356.0
842.0 380.0
843.0 36.0
843.0 54.0
843.0 72.0
843.0 90.0
843.0 108.0
843.0 126.0
843.0 146.0
843.0 172.0
843.0 202.0
852.0 41.0
852.0 65.0
852.0 90.0
852.0 114.0
852.0 137.0
852.0 162.0
852.0 188.0
852.0 213.0
852.0 238.0
852.0 264.0
852.0 290.0
852.0 314.0
852.0 336.0
852.0 358.0
852.0 380.0
857.0 43.0
857.0 67.0
857.0 91.0
857.0 114.0
857.0 136.0
857.0 160.0
857.0 183.0
857.0 206.0
857.0 229.0
857.0 253.0
857.0 276.0
857.0 300.0
857.0 320.0
857.0 340.0
857.0 360.0
857.0 380.0
857.0 400.0
860.0 34.0
860.0 50.0
860.0 67.0
860.0 83.0
860.0 99.0
860.0 115.0
860.0 131.0
860.0 150.0
860.0 173.0
860.0 197.0
860.0 227.0
861.0 36.0
861.0 55.0
861.0 73.0
861.0 91.0
861.0 109.0
861.0 127.0
861.0 148.0
861.0 174.0
861.0 206.0
866.0 28.0
866.0 42.0
866.0 54.0
866.0 67.0
866.0 80.0
866.0 93.0
866.0 106.0
866.0 118.0
866.0 131.0
866.0 144.0
866.0 159.0
866.0 173.0
866.0 188.0
866.0 203.0
866.0 220.0
866.0 237.0
866.0 259.0
866.0 285.0
866.0 309.0
866.0 330.0
866.0 352.0
866.0 374.0
866.0 396.0
870.0 105.0
880.0 43.0
880.0 69.0
880.0 96.0
880.0 123.0
880.0 153.0
880.0 180.0
880.0 214.0
881.0 111.0
889.0 129.0
894.0 103.0
941.0 43.0
941.0 72.0
941.0 103.0
941.0 130.0
941.0 160.0
941.0 189.0
941.0 218.0
941.0 248.0
941.0 275.0
941.0 303.0
941.0 327.0
941.0 350.0
941.0 373.0
941.0 396.0
942.0 123.0
949.0 42.0
949.0 66.0
949.0 91.0
949.0 116.0
949.0 137.0
949.0 161.0
949.0 185.0
949.0 210.0
949.0 234.0
949.0 259.0
949.0 283.0
949.0 306.0
949.0 326.0
949.0 346.0
949.0 366.0
949.0 387.0
950.0 42.0
950.0 70.0
950.0 98.0
950.0 122.0
950.0 147.0
950.0 175.0
950.0 202.0
950.0 229.0
950.0 255.0
950.0 281.0
950.0 306.0
950.0 328.0
950.0 350.0
950.0 372.0
950.0 394.0
951.0 374.0
959.0 43.0
959.0 72.0
959.0 102.0
959.0 127.0
959.0 155.0
959.0 183.0
959.0 211.0
959.0 239.0
959.0 265.0
959.0 292.0
959.0 315.0
959.0 337.0
959.0 359.0
959.0 382.0
973.0 41.0
973.0 66.0
973.0 92.0
973.0 117.0
973.0 140.0
973.0 166.0
973.0 191.0
973.0 216.0
973.0 240.0
973.0 265.0
973.0 290.0
973.0 312.0
973.0 333.0
973.0 354.0
973.0 375.0
973.0 396.0
981.0 136.0
989.0 105.0
991.0 42.0
991.0 66.0
991.0 93.0
991.0 117.0
991.0 140.0
991.0 164.0
991.0 189.0
991.0 214.0
991.0 238.0
991.0 262.0
991.0 287.0
991.0 309.0
991.0 329.0
991.0 349.0
991.0 369.0
991.0 389.0
1001.0 41.0
1001.0 69.0
1001.0 97.0
1001.0 122.0
1001.0 154.0
1001.0 182.0
1001.0 224.0
1012.0 40.0
1012.0 66.0
1012.0 93.0
1012.0 119.0
1012.0 150.0
1012.0 178.0
1012.0 212.0
1014.0 105.0
1016.0 44.0
1016.0 75.0
1016.0 106.0
1016.0 133.0
1016.0 167.0
1016.0 199.0
1018.0 100.0
1038.0 40.0
1038.0 65.0
1038.0 90.0
1038.0 114.0
1038.0 139.0
1038.0 167.0
1038.0 194.0
1038.0 238.0
1068.0 43.0
1068.0 71.0
1068.0 100.0
1068.0 126.0
1068.0 153.0
1068.0 180.0
1068.0 206.0
1068.0 232.0
1068.0 259.0
1068.0 285.0
1068.0 309.0
1068.0 330.0
1068.0 351.0
1068.0 372.0
1068.0 393.0
1075.0 43.0
1075.0 71.0
1075.0 101.0
1075.0 128.0
1075.0 156.0
1075.0 184.0
1075.0 212.0
1075.0 240.0
1075.0 267.0
1075.0 294.0
1075.0 318.0
1075.0 340.0
1075.0 362.0
1075.0 384.0
1084.0 133.0
1087.0 43.0
1087.0 70.0
1087.0 100.0
1087.0 126.0
1087.0 154.0
1087.0 181.0
1087.0 208.0
1087.0 235.0
1087.0 262.0
1087.0 289.0
1087.0 313.0
1087.0 335.0
1087.0 357.0
1087.0 379.0
1088.0 43.0
1088.0 71.0
1088.0 100.0
1088.0 127.0
1088.0 157.0
1088.0 184.0
1088.0 212.0
1088.0 239.0
1088.0 266.0
1088.0 294.0
1088.0 318.0
1088.0 341.0
1088.0 364.0
1088.0 387.0
1105.0 41.0
1105.0 64.0
1105.0 88.0
1105.0 111.0
1105.0 132.0
1105.0 155.0
1105.0 178.0
1105.0 201.0
1105.0 224.0
1105.0 248.0
1105.0 271.0
1105.0 295.0
1105.0 316.0
1105.0 336.0
1105.0 356.0
1105.0 376.0
1105.0 396.0
1114.0 42.0
1114.0 69.0
1114.0 96.0
1114.0 121.0
1114.0 145.0
1114.0 171.0
1114.0 196.0
1114.0 221.0
1114.0 246.0
1114.0 271.0
1114.0 297.0
1114.0 319.0
1114.0 341.0
1114.0 363.0
1114.0 385.0
1118.0 43.0
1118.0 72.0
1118.0 102.0
1118.0 129.0
1118.0 155.0
1118.0 182.0
1118.0 210.0
1118.0 237.0
1118.0 264.0
1118.0 291.0
1118.0 315.0
1118.0 337.0
1118.0 359.0
1118.0 382.0
1134.0 125.0
1135.0 45.0
1135.0 76.0
1135.0 106.0
1135.0 134.0
1135.0 162.0
1135.0 191.0
1135.0 220.0
1135.0 249.0
1135.0 276.0
1135.0 303.0
1135.0 326.0
1135.0 349.0
1135.0 372.0
1135.0 395.0
1148.0 120.0
1156.0 40.0
1156.0 66.0
1156.0 95.0
1156.0 121.0
1156.0 151.0
1156.0 178.0
1156.0 211.0
1165.0 40.0
1165.0 66.0
1165.0 94.0
1165.0 120.0
1165.0 151.0
1165.0 179.0
1165.0 219.0
1172.0 40.0
1172.0 65.0
1172.0 92.0
1172.0 118.0
1172.0 146.0
1172.0 175.0
1172.0 207.0
1204.0 43.0
1204.0 71.0
1204.0 100.0
1204.0 126.0
1204.0 151.0
1204.0 178.0
1204.0 204.0
1204.0 231.0
1204.0 259.0
1204.0 286.0
1204.0 311.0
1204.0 333.0
1204.0 355.0
1204.0 377.0
1204.0 399.0
1222.0 44.0
1222.0 70.0
1222.0 98.0
1222.0 122.0
1222.0 146.0
1222.0 172.0
1222.0 198.0
1222.0 224.0
1222.0 250.0
1222.0 274.0
1222.0 299.0
1222.0 320.0
1222.0 341.0
1222.0 362.0
1222.0 383.0
1226.0 41.0
1226.0 66.0
1226.0 93.0
1226.0 117.0
1226.0 140.0
1226.0 165.0
1226.0 190.0
1226.0 216.0
1226.0 242.0
1226.0 267.0
1226.0 294.0
1226.0 317.0
1226.0 339.0
1226.0 361.0
1226.0 382.0
1251.0 41.0
1251.0 67.0
1251.0 93.0
1251.0 118.0
1251.0 144.0
1251.0 172.0
1251.0 201.0
1252.0 123.0
1253.0 41.0
1253.0 70.0
1253.0 100.0
1253.0 128.0
1253.0 161.0
1253.0 193.0
1254.0 43.0
1254.0 70.0
1254.0 98.0
1254.0 124.0
1254.0 149.0
1254.0 176.0
1254.0 204.0
1254.0 231.0
1254.0 258.0
1254.0 284.0
1254.0 309.0
1254.0 331.0
1254.0 353.0
1254.0 375.0
1254.0 397.0
1262.0 131.0
1337.0 42.0
1337.0 69.0
1337.0 98.0
1337.0 124.0
1337.0 148.0
1337.0 174.0
1337.0 201.0
1337.0 227.0
1337.0 253.0
1337.0 277.0
1337.0 301.0
1337.0 322.0
1337.0 343.0
1337.0 364.0
1337.0 385.0
1340.0 42.0
1340.0 69.0
1340.0 96.0
1340.0 121.0
1340.0 146.0
1340.0 173.0
1340.0 199.0
1340.0 225.0
1340.0 252.0
1340.0 276.0
1340.0 301.0
1340.0 323.0
1340.0 345.0
1340.0 366.0
1340.0 387.0
1345.0 43.0
1345.0 70.0
1345.0 98.0
1345.0 124.0
1345.0 149.0
1345.0 175.0
1345.0 201.0
1345.0 228.0
1345.0 254.0
1345.0 278.0
1345.0 302.0
1345.0 323.0
1345.0 344.0
1345.0 365.0
1345.0 386.0
1390.0 41.0
1390.0 67.0
1390.0 93.0
1390.0 119.0
1390.0 147.0
1390.0 174.0
1390.0 202.0
1404.0 43.0
1404.0 70.0
1404.0 99.0
1404.0 126.0
1404.0 158.0
1404.0 187.0
1404.0 227.0
1417.0 46.0
1417.0 76.0
1417.0 106.0
1417.0 133.0
1417.0 162.0
1417.0 191.0
1417.0 220.0
1417.0 250.0
1417.0 277.0
1417.0 304.0
1417.0 328.0
1417.0 352.0
1417.0 376.0
1417.0 400.0
1418.0 43.0
1418.0 70.0
1418.0 99.0
1418.0 125.0
1418.0 151.0
1418.0 178.0
1418.0 206.0
1418.0 234.0
1418.0 261.0
1418.0 288.0
1418.0 312.0
1418.0 334.0
1418.0 356.0
1418.0 379.0
1423.0 43.0
1423.0 70.0
1423.0 98.0
1423.0 124.0
1423.0 149.0
1423.0 175.0
1423.0 201.0
1423.0 227.0
1423.0 253.0
1423.0 278.0
1423.0 303.0
1423.0 324.0
1423.0 345.0
1423.0 366.0
1423.0 387.0
1442.0 7.0
1442.0 12.0
1442.0 17.0
1442.0 22.0
1442.0 27.0
1442.0 32.0
1442.0 37.0
1442.0 42.0
1442.0 47.0
1442.0 53.0
1442.0 59.0
1442.0 65.0
1442.0 71.0
1442.0 77.0
1442.0 83.0
1442.0 89.0
1442.0 95.0
1442.0 101.0
1442.0 106.0
1442.0 111.0
1442.0 116.0
1442.0 121.0
1442.0 126.0
1442.0 131.0
1442.0 136.0
1442.0 141.0
1442.0 146.0
1442.0 150.0
1442.0 154.0
1442.0 158.0
1442.0 162.0
1442.0 166.0
1442.0 170.0
1442.0 174.0
1442.0 178.0
1442.0 182.0
1442.0 186.0
1442.0 190.0
1442.0 194.0
1442.0 198.0
1442.0 202.0
1442.0 206.0
1442.0 210.0
1442.0 214.0
1442.0 218.0
1442.0 222.0
1442.0 226.0
1442.0 230.0
1442.0 234.0
1442.0 238.0
1442.0 242.0
1442.0 246.0
1442.0 250.0
1442.0 254.0
1442.0 257.0
1442.0 261.0
1442.0 265.0
1442.0 268.0
1442.0 272.0
1442.0 276.0
1442.0 280.0
1442.0 283.0
1442.0 287.0
1442.0 290.0
1442.0 294.0
1442.0 297.0
1442.0 300.0
1442.0 303.0
1442.0 306.0
1442.0 309.0
1442.0 312.0
1442.0 315.0
1442.0 318.0
1442.0 321.0
1442.0 324.0
1442.0 327.0
1442.0 330.0
1442.0 333.0
1442.0 336.0
1442.0 339.0
1442.0 342.0
1442.0 345.0
1442.0 348.0
1442.0 351.0
1442.0 354.0
1442.0 357.0
1442.0 360.0
1442.0 363.0
1442.0 366.0
1442.0 369.0
1442.0 372.0
1442.0 375.0
1442.0 378.0
1442.0 381.0
1442.0 384.0
1442.0 387.0
1442.0 390.0
1442.0 393.0
1442.0 396.0
