26.0 9.0
26.0 15.0
26.0 21.0
26.0 27.0
26.0 33.0
26.0 39.0
26.0 45.0
26.0 51.0
26.0 57.0
26.0 63.0
26.0 69.0
26.0 75.0
26.0 81.0
26.0 87.0
26.0 93.0
26.0 99.0
26.0 105.0
26.0 111.0
26.0 117.0
26.0 123.0
26.0 129.0
26.0 134.0
26.0 139.0
26.0 144.0
26.0 149.0
26.0 154.0
26.0 159.0
26.0 164.0
26.0 169.0
26.0 174.0
26.0 179.0
26.0 184.0
26.0 188.0
26.0 192.0
26.0 196.0
26.0 200.0
26.0 204.0
26.0 208.0
26.0 212.0
26.0 216.0
26.0 220.0
26.0 224.0
26.0 228.0
26.0 232.0
26.0 236.0
26.0 240.0
26.0 244.0
26.0 248.0
26.0 253.0
26.0 257.0
26.0 263.0
26.0 268.0
26.0 273.0
26.0 278.0
26.0 283.0
26.0 289.0
26.0 295.0
26.0 301.0
26.0 307.0
26.0 313.0
26.0 319.0
26.0 325.0
26.0 331.0
26.0 337.0
26.0 343.0
26.0 349.0
26.0 355.0
26.0 363.0
26.0 371.0
26.0 379.0
26.0 387.0
112.0 46.0
112.0 75.0
112.0 110.0
112.0 150.0
112.0 186.0
112.0 214.0
112.0 242.0
112.0 279.0
129.0 48.0
129.0 78.0
129.0 115.0
129.0 154.0
129.0 190.0
129.0 219.0
129.0 247.0
129.0 284.0
185.0 207.0
217.0 44.0
217.0 72.0
217.0 108.0
217.0 145.0
217.0 179.0
217.0 208.0
217.0 236.0
217.0 267.0
217.0 348.0
224.0 45.0
224.0 71.0
224.0 101.0
224.0 134.0
224.0 165.0
224.0 194.0
224.0 220.0
224.0 246.0
224.0 280.0
227.0 45.0
227.0 74.0
227.0 111.0
227.0 153.0
227.0 189.0
227.0 219.0
227.0 249.0
232.0 43.0
232.0 67.0
232.0 92.0
232.0 123.0
232.0 154.0
232.0 183.0
232.0 208.0
232.0 232.0
232.0 258.0
232.0 300.0
241.0 44.0
241.0 69.0
241.0 93.0
241.0 127.0
241.0 158.0
241.0 189.0
241.0 216.0
241.0 242.0
241.0 272.0
241.0 331.0
258.0 45.0
258.0 74.0
258.0 110.0
258.0 149.0
258.0 184.0
258.0 213.0
258.0 241.0
258.0 274.0
259.0 44.0
259.0 74.0
259.0 112.0
259.0 152.0
259.0 189.0
259.0 218.0
259.0 246.0
259.0 283.0
296.0 111.0
296.0 203.0
303.0 206.0
328.0 43.0
328.0 72.0
328.0 108.0
328.0 144.0
328.0 178.0
328.0 207.0
328.0 234.0
328.0 262.0
328.0 316.0
334.0 43.0
334.0 67.0
334.0 94.0
334.0 127.0
334.0 159.0
334.0 191.0
334.0 219.0
334.0 246.0
334.0 277.0
334.0 341.0
347.0 33.0
347.0 51.0
347.0 69.0
347.0 87.0
347.0 107.0
347.0 128.0
347.0 150.0
347.0 172.0
347.0 193.0
347.0 212.0
347.0 232.0
347.0 260.0
347.0 292.0
347.0 322.0
347.0 352.0
347.0 390.0
366.0 44.0
366.0 69.0
366.0 98.0
366.0 133.0
366.0 165.0
366.0 194.0
366.0 220.0
366.0 248.0
366.0 283.0
382.0 46.0
382.0 76.0
382.0 117.0
382.0 159.0
382.0 196.0
382.0 225.0
382.0 255.0
383.0 79.0
450.0 203.0
456.0 45.0
456.0 74.0
456.0 110.0
456.0 174.0
466.0 77.0
475.0 79.0
487.0 45.0
487.0 74.0
487.0 111.0
487.0 151.0
487.0 186.0
487.0 215.0
487.0 243.0
487.0 278.0
591.0 45.0
591.0 71.0
591.0 103.0
591.0 157.0
599.0 33.0
599.0 51.0
599.0 69.0
599.0 87.0
599.0 108.0
599.0 129.0
599.0 152.0
599.0 174.0
599.0 196.0
599.0 216.0
599.0 241.0
599.0 279.0
599.0 309.0
599.0 338.0
599.0 377.0
605.0 44.0
605.0 68.0
605.0 95.0
605.0 125.0
605.0 155.0
605.0 185.0
605.0 211.0
605.0 237.0
605.0 264.0
605.0 336.0
612.0 83.0
623.0 43.0
623.0 69.0
623.0 100.0
623.0 138.0
623.0 171.0
623.0 202.0
623.0 230.0
623.0 258.0
623.0 326.0
632.0 42.0
632.0 66.0
632.0 94.0
632.0 129.0
632.0 161.0
632.0 194.0
632.0 220.0
632.0 246.0
632.0 281.0
680.0 9.0
680.0 15.0
680.0 21.0
680.0 27.0
680.0 33.0
680.0 39.0
680.0 45.0
680.0 51.0
680.0 57.0
680.0 63.0
680.0 69.0
680.0 75.0
680.0 81.0
680.0 87.0
680.0 93.0
680.0 99.0
680.0 105.0
680.0 111.0
680.0 119.0
680.0 127.0
680.0 135.0
680.0 143.0
680.0 151.0
680.0 159.0
680.0 167.0
680.0 175.0
680.0 183.0
680.0 191.0
680.0 199.0
680.0 209.0
680.0 219.0
680.0 275.0
680.0 283.0
680.0 292.0
680.0 300.0
680.0 308.0
680.0 316.0
680.0 324.0
680.0 332.0
680.0 340.0
680.0 348.0
680.0 356.0
680.0 364.0
680.0 372.0
680.0 378.0
680.0 384.0
680.0 390.0
696.0 46.0
696.0 73.0
696.0 99.0
696.0 125.0
696.0 156.0
696.0 190.0
696.0 218.0
696.0 246.0
696.0 278.0
696.0 319.0
708.0 48.0
708.0 78.0
708.0 119.0
708.0 161.0
708.0 198.0
708.0 230.0
708.0 263.0
714.0 46.0
714.0 72.0
714.0 99.0
714.0 127.0
714.0 182.0
714.0 326.0
718.0 206.0
719.0 129.0
725.0 36.0
725.0 52.0
725.0 69.0
725.0 85.0
725.0 103.0
725.0 122.0
725.0 145.0
725.0 168.0
725.0 195.0
725.0 222.0
725.0 250.0
725.0 279.0
725.0 314.0
725.0 360.0
729.0 114.0
734.0 46.0
734.0 72.0
734.0 96.0
734.0 121.0
734.0 150.0
734.0 181.0
734.0 210.0
734.0 238.0
734.0 269.0
734.0 308.0
735.0 34.0
735.0 51.0
735.0 68.0
735.0 84.0
735.0 103.0
735.0 122.0
735.0 145.0
735.0 170.0
735.0 196.0
735.0 222.0
735.0 249.0
735.0 278.0
735.0 314.0
735.0 357.0
736.0 43.0
736.0 69.0
736.0 100.0
736.0 150.0
736.0 207.0
738.0 48.0
738.0 76.0
738.0 105.0
738.0 149.0
744.0 45.0
744.0 71.0
744.0 96.0
744.0 123.0
744.0 152.0
744.0 182.0
744.0 210.0
744.0 238.0
744.0 266.0
744.0 302.0
745.0 44.0
745.0 71.0
745.0 105.0
745.0 143.0
745.0 176.0
745.0 206.0
745.0 234.0
745.0 263.0
762.0 77.0
763.0 6.0
763.0 10.0
763.0 13.0
763.0 17.0
763.0 20.0
763.0 24.0
763.0 27.0
763.0 30.0
763.0 33.0
763.0 36.0
763.0 39.0
763.0 42.0
763.0 45.0
763.0 48.0
763.0 51.0
763.0 54.0
763.0 57.0
763.0 60.0
763.0 63.0
763.0 66.0
763.0 69.0
763.0 72.0
763.0 75.0
763.0 78.0
763.0 82.0
763.0 86.0
763.0 90.0
763.0 93.0
763.0 97.0
763.0 101.0
763.0 104.0
763.0 108.0
763.0 112.0
763.0 116.0
763.0 120.0
763.0 124.0
763.0 128.0
763.0 132.0
763.0 136.0
763.0 140.0
763.0 144.0
763.0 148.0
763.0 152.0
763.0 156.0
763.0 160.0
763.0 164.0
763.0 168.0
763.0 172.0
763.0 176.0
763.0 180.0
763.0 184.0
763.0 188.0
763.0 192.0
763.0 196.0
763.0 200.0
763.0 204.0
763.0 208.0
763.0 212.0
763.0 216.0
763.0 220.0
763.0 224.0
763.0 228.0
763.0 232.0
763.0 236.0
763.0 240.0
763.0 244.0
763.0 248.0
763.0 252.0
763.0 256.0
763.0 260.0
763.0 264.0
763.0 268.0
763.0 273.0
763.0 277.0
763.0 283.0
763.0 288.0
763.0 293.0
763.0 298.0
763.0 303.0
763.0 308.0
763.0 313.0
763.0 318.0
763.0 323.0
763.0 328.0
763.0 333.0
763.0 338.0
763.0 343.0
763.0 348.0
763.0 353.0
763.0 359.0
763.0 365.0
763.0 371.0
763.0 377.0
763.0 383.0
763.0 389.0
763.0 395.0
841.0 48.0
841.0 81.0
842.0 48.0
842.0 80.0
842.0 113.0
843.0 46.0
843.0 73.0
843.0 108.0
843.0 166.0
850.0 84.0
851.0 80.0
852.0 46.0
852.0 73.0
852.0 99.0
852.0 127.0
852.0 187.0
857.0 45.0
857.0 69.0
857.0 92.0
857.0 114.0
857.0 146.0
857.0 190.0
857.0 323.0
860.0 44.0
860.0 69.0
860.0 96.0
860.0 136.0
860.0 184.0
861.0 46.0
861.0 74.0
861.0 110.0
861.0 173.0
864.0 90.0
866.0 29.0
866.0 43.0
866.0 56.0
866.0 69.0
866.0 81.0
866.0 95.0
866.0 109.0
866.0 124.0
866.0 141.0
866.0 159.0
866.0 177.0
866.0 197.0
866.0 217.0
866.0 238.0
866.0 265.0
866.0 289.0
866.0 313.0
866.0 335.0
866.0 359.0
866.0 386.0
870.0 81.0
880.0 36.0
880.0 53.0
880.0 69.0
880.0 85.0
880.0 104.0
880.0 123.0
880.0 146.0
880.0 170.0
880.0 196.0
880.0 222.0
880.0 247.0
880.0 272.0
880.0 304.0
880.0 340.0
941.0 48.0
941.0 79.0
941.0 111.0
949.0 45.0
949.0 72.0
949.0 97.0
949.0 124.0
949.0 166.0
950.0 47.0
950.0 78.0
950.0 108.0
950.0 148.0
959.0 47.0
959.0 77.0
959.0 107.0
959.0 150.0
965.0 90.0
973.0 43.0
973.0 69.0
973.0 97.0
973.0 125.0
973.0 176.0
973.0 321.0
985.0 80.0
991.0 45.0
991.0 71.0
991.0 97.0
991.0 124.0
991.0 174.0
1001.0 34.0
1001.0 52.0
1001.0 70.0
1001.0 89.0
1001.0 110.0
1001.0 130.0
1001.0 156.0
1001.0 184.0
1001.0 213.0
1001.0 241.0
1001.0 270.0
1001.0 305.0
1001.0 349.0
1012.0 34.0
1012.0 51.0
1012.0 68.0
1012.0 85.0
1012.0 105.0
1012.0 125.0
1012.0 149.0
1012.0 175.0
1012.0 202.0
1012.0 229.0
1012.0 256.0
1012.0 286.0
1012.0 321.0
1016.0 36.0
1016.0 54.0
1016.0 72.0
1016.0 91.0
1016.0 111.0
1016.0 134.0
1016.0 162.0
1016.0 191.0
1016.0 221.0
1016.0 250.0
1016.0 281.0
1016.0 321.0
1031.0 80.0
1038.0 35.0
1038.0 52.0
1038.0 69.0
1038.0 86.0
1038.0 105.0
1038.0 125.0
1038.0 148.0
1038.0 174.0
1038.0 200.0
1038.0 227.0
1038.0 254.0
1038.0 282.0
1038.0 317.0
1038.0 362.0
1068.0 46.0
1068.0 73.0
1068.0 100.0
1068.0 130.0
1068.0 203.0
1075.0 46.0
1075.0 74.0
1075.0 103.0
1075.0 136.0
1075.0 206.0
1087.0 48.0
1087.0 77.0
1087.0 107.0
1087.0 156.0
1088.0 45.0
1088.0 74.0
1088.0 104.0
1088.0 139.0
1105.0 43.0
1105.0 67.0
1105.0 90.0
1105.0 113.0
1105.0 149.0
1105.0 197.0
1105.0 316.0
1114.0 45.0
1114.0 72.0
1114.0 99.0
1114.0 130.0
1114.0 188.0
1118.0 46.0
1118.0 75.0
1118.0 104.0
1118.0 143.0
1135.0 46.0
1135.0 76.0
1135.0 106.0
1135.0 159.0
1156.0 34.0
1156.0 51.0
1156.0 68.0
1156.0 85.0
1156.0 105.0
1156.0 125.0
1156.0 149.0
1156.0 176.0
1156.0 203.0
1156.0 230.0
1156.0 256.0
1156.0 286.0
1156.0 321.0
1156.0 388.0
1165.0 34.0
1165.0 52.0
1165.0 70.0
1165.0 89.0
1165.0 110.0
1165.0 132.0
1165.0 159.0
1165.0 187.0
1165.0 217.0
1165.0 245.0
1165.0 274.0
1165.0 311.0
1165.0 358.0
1172.0 34.0
1172.0 52.0
1172.0 69.0
1172.0 87.0
1172.0 107.0
1172.0 128.0
1172.0 154.0
1172.0 181.0
1172.0 209.0
1172.0 237.0
1172.0 265.0
1172.0 298.0
1172.0 335.0
1204.0 47.0
1204.0 76.0
1204.0 105.0
1204.0 150.0
1222.0 46.0
1222.0 73.0
1222.0 99.0
1222.0 127.0
1222.0 182.0
1225.0 117.0
1226.0 44.0
1226.0 70.0
1226.0 95.0
1226.0 120.0
1226.0 160.0
1226.0 321.0
1243.0 81.0
1251.0 34.0
1251.0 51.0
1251.0 68.0
1251.0 84.0
1251.0 103.0
1251.0 123.0
1251.0 147.0
1251.0 173.0
1251.0 200.0
1251.0 227.0
1251.0 255.0
1251.0 284.0
1251.0 319.0
1251.0 372.0
1253.0 35.0
1253.0 54.0
1253.0 72.0
1253.0 91.0
1253.0 113.0
1253.0 137.0
1253.0 165.0
1253.0 195.0
1253.0 225.0
1253.0 254.0
1253.0 287.0
1253.0 329.0
1254.0 45.0
1254.0 73.0
1254.0 99.0
1254.0 127.0
1254.0 192.0
1337.0 45.0
1337.0 72.0
1337.0 99.0
1337.0 128.0
1337.0 189.0
1340.0 44.0
1340.0 72.0
1340.0 99.0
1340.0 127.0
1340.0 191.0
1345.0 45.0
1345.0 75.0
1345.0 105.0
1345.0 151.0
1355.0 77.0
1390.0 34.0
1390.0 51.0
1390.0 68.0
1390.0 85.0
1390.0 105.0
1390.0 126.0
1390.0 151.0
1390.0 178.0
1390.0 206.0
1390.0 233.0
1390.0 260.0
1390.0 291.0
1390.0 325.0
1404.0 36.0
1404.0 54.0
1404.0 72.0
1404.0 90.0
1404.0 110.0
1404.0 131.0
1404.0 157.0
1404.0 185.0
1404.0 214.0
1404.0 242.0
1404.0 270.0
1404.0 305.0
1404.0 345.0
1417.0 47.0
1417.0 78.0
1417.0 109.0
1418.0 46.0
1418.0 76.0
1418.0 106.0
1418.0 150.0
1423.0 45.0
1423.0 75.0
1423.0 103.0
1423.0 135.0
1423.0 207.0
1442.0 6.0
1442.0 10.0
1442.0 13.0
1442.0 17.0
1442.0 20.0
1442.0 24.0
1442.0 27.0
1442.0 30.0
1442.0 33.0
1442.0 36.0
1442.0 39.0
1442.0 42.0
1442.0 45.0
1442.0 48.0
1442.0 51.0
1442.0 54.0
1442.0 57.0
1442.0 60.0
1442.0 63.0
1442.0 66.0
1442.0 69.0
1442.0 72.0
1442.0 75.0
1442.0 78.0
1442.0 81.0
1442.0 84.0
1442.0 87.0
1442.0 90.0
1442.0 93.0
1442.0 96.0
1442.0 99.0
1442.0 102.0
1442.0 105.0
1442.0 108.0
1442.0 111.0
1442.0 114.0
1442.0 117.0
1442.0 120.0
1442.0 123.0
1442.0 126.0
1442.0 130.0
1442.0 134.0
1442.0 138.0
1442.0 141.0
1442.0 145.0
1442.0 149.0
1442.0 152.0
1442.0 156.0
1442.0 160.0
1442.0 164.0
1442.0 168.0
1442.0 172.0
1442.0 176.0
1442.0 180.0
1442.0 184.0
1442.0 188.0
1442.0 192.0
1442.0 196.0
1442.0 200.0
1442.0 204.0
1442.0 208.0
1442.0 212.0
1442.0 216.0
1442.0 220.0
1442.0 224.0
1442.0 228.0
1442.0 232.0
1442.0 236.0
1442.0 240.0
1442.0 244.0
1442.0 248.0
1442.0 252.0
1442.0 256.0
1442.0 260.0
1442.0 264.0
1442.0 268.0
1442.0 272.0
1442.0 276.0
1442.0 280.0
1442.0 284.0
1442.0 288.0
1442.0 292.0
1442.0 296.0
1442.0 300.0
1442.0 304.0
1442.0 308.0
1442.0 312.0
1442.0 316.0
1442.0 320.0
1442.0 325.0
1442.0 329.0
1442.0 334.0
1442.0 338.0
1442.0 343.0
1442.0 348.0
1442.0 353.0
1442.0 358.0
1442.0 363.0
1442.0 368.0
1442.0 373.0
1442.0 378.0
1442.0 383.0
1442.0 389.0
1442.0 395.0
