232.0 139.0
235.0 134.0
235.0 227.0
241.0 129.0
241.0 216.0
334.0 132.0
334.0 220.0
347.0 37.0
347.0 59.0
347.0 80.0
347.0 101.0
347.0 122.0
347.0 143.0
347.0 165.0
347.0 190.0
347.0 215.0
347.0 238.0
347.0 264.0
347.0 290.0
347.0 316.0
347.0 343.0
347.0 371.0
347.0 399.0
366.0 130.0
366.0 224.0
449.0 142.0
456.0 39.0
456.0 60.0
456.0 81.0
456.0 102.0
456.0 123.0
456.0 144.0
456.0 165.0
456.0 189.0
456.0 213.0
456.0 237.0
456.0 262.0
456.0 289.0
456.0 315.0
456.0 342.0
456.0 370.0
456.0 398.0
466.0 119.0
466.0 207.0
475.0 118.0
475.0 211.0
478.0 123.0
478.0 210.0
589.0 131.0
591.0 36.0
591.0 56.0
591.0 75.0
591.0 95.0
591.0 115.0
591.0 135.0
591.0 154.0
591.0 176.0
591.0 198.0
591.0 220.0
591.0 241.0
591.0 264.0
591.0 288.0
591.0 312.0
591.0 336.0
591.0 361.0
591.0 386.0
599.0 37.0
599.0 58.0
599.0 79.0
599.0 100.0
599.0 120.0
599.0 140.0
599.0 161.0
599.0 185.0
599.0 211.0
599.0 234.0
599.0 259.0
599.0 284.0
599.0 310.0
599.0 336.0
599.0 364.0
599.0 392.0
601.0 121.0
601.0 215.0
605.0 110.0
605.0 215.0
612.0 92.0
612.0 158.0
612.0 230.0
613.0 134.0
615.0 142.0
615.0 219.0
625.0 86.0
625.0 146.0
625.0 230.0
632.0 108.0
632.0 219.0
680.0 6.0
680.0 10.0
680.0 14.0
680.0 18.0
680.0 22.0
680.0 26.0
680.0 30.0
680.0 34.0
680.0 38.0
680.0 42.0
680.0 46.0
680.0 50.0
680.0 54.0
680.0 58.0
680.0 62.0
680.0 66.0
680.0 70.0
680.0 74.0
680.0 78.0
680.0 82.0
680.0 86.0
680.0 90.0
680.0 94.0
680.0 98.0
680.0 102.0
680.0 106.0
680.0 110.0
680.0 114.0
680.0 118.0
680.0 122.0
680.0 126.0
680.0 130.0
680.0 134.0
680.0 138.0
680.0 142.0
680.0 146.0
680.0 150.0
680.0 154.0
680.0 159.0
680.0 163.0
680.0 169.0
680.0 174.0
680.0 179.0
680.0 184.0
680.0 189.0
680.0 194.0
680.0 199.0
680.0 204.0
680.0 209.0
680.0 214.0
680.0 219.0
680.0 224.0
680.0 228.0
680.0 232.0
680.0 236.0
680.0 240.0
680.0 244.0
680.0 248.0
680.0 252.0
680.0 256.0
680.0 260.0
680.0 264.0
680.0 268.0
680.0 272.0
680.0 276.0
680.0 280.0
680.0 284.0
680.0 288.0
680.0 292.0
680.0 296.0
680.0 300.0
680.0 304.0
680.0 308.0
680.0 312.0
680.0 316.0
680.0 320.0
680.0 324.0
680.0 328.0
680.0 332.0
680.0 336.0
680.0 340.0
680.0 344.0
680.0 348.0
680.0 352.0
680.0 356.0
680.0 360.0
680.0 364.0
680.0 368.0
680.0 372.0
680.0 376.0
680.0 380.0
680.0 384.0
680.0 388.0
680.0 392.0
680.0 396.0
714.0 40.0
714.0 60.0
714.0 80.0
714.0 100.0
714.0 120.0
714.0 140.0
714.0 160.0
714.0 183.0
714.0 206.0
714.0 229.0
714.0 249.0
714.0 270.0
714.0 290.0
714.0 310.0
714.0 332.0
714.0 357.0
714.0 384.0
719.0 101.0
719.0 166.0
719.0 241.0
725.0 37.0
725.0 53.0
725.0 69.0
725.0 86.0
725.0 102.0
725.0 118.0
725.0 135.0
725.0 152.0
725.0 169.0
725.0 185.0
725.0 201.0
725.0 217.0
725.0 233.0
725.0 252.0
725.0 271.0
725.0 289.0
725.0 308.0
725.0 328.0
725.0 351.0
725.0 376.0
726.0 92.0
726.0 155.0
726.0 218.0
729.0 133.0
729.0 238.0
734.0 127.0
734.0 220.0
735.0 35.0
735.0 52.0
735.0 68.0
735.0 85.0
735.0 101.0
735.0 117.0
735.0 133.0
735.0 150.0
735.0 167.0
735.0 183.0
735.0 199.0
735.0 215.0
735.0 232.0
735.0 250.0
735.0 269.0
735.0 287.0
735.0 307.0
735.0 327.0
735.0 351.0
735.0 376.0
736.0 36.0
736.0 57.0
736.0 78.0
736.0 100.0
736.0 121.0
736.0 141.0
736.0 162.0
736.0 186.0
736.0 210.0
736.0 235.0
736.0 260.0
736.0 286.0
736.0 311.0
736.0 336.0
736.0 363.0
736.0 391.0
738.0 40.0
738.0 62.0
738.0 84.0
738.0 106.0
738.0 127.0
738.0 149.0
738.0 172.0
738.0 197.0
738.0 221.0
738.0 244.0
738.0 266.0
738.0 288.0
738.0 310.0
738.0 335.0
738.0 362.0
738.0 391.0
744.0 115.0
744.0 209.0
754.0 127.0
754.0 218.0
762.0 127.0
762.0 215.0
763.0 6.0
763.0 10.0
763.0 13.0
763.0 17.0
763.0 20.0
763.0 24.0
763.0 27.0
763.0 30.0
763.0 33.0
763.0 36.0
763.0 39.0
763.0 42.0
763.0 45.0
763.0 48.0
763.0 51.0
763.0 54.0
763.0 57.0
763.0 60.0
763.0 63.0
763.0 66.0
763.0 69.0
763.0 72.0
763.0 75.0
763.0 78.0
763.0 81.0
763.0 84.0
763.0 87.0
763.0 90.0
763.0 93.0
763.0 96.0
763.0 99.0
763.0 102.0
763.0 105.0
763.0 108.0
763.0 111.0
763.0 114.0
763.0 117.0
763.0 120.0
763.0 123.0
763.0 126.0
763.0 129.0
763.0 132.0
763.0 135.0
763.0 138.0
763.0 141.0
763.0 144.0
763.0 147.0
763.0 150.0
763.0 153.0
763.0 156.0
763.0 159.0
763.0 162.0
763.0 165.0
763.0 168.0
763.0 171.0
763.0 174.0
763.0 177.0
763.0 180.0
763.0 183.0
763.0 186.0
763.0 189.0
763.0 192.0
763.0 195.0
763.0 198.0
763.0 201.0
763.0 204.0
763.0 207.0
763.0 210.0
763.0 213.0
763.0 216.0
763.0 219.0
763.0 222.0
763.0 225.0
763.0 228.0
763.0 231.0
763.0 234.0
763.0 238.0
763.0 242.0
763.0 246.0
763.0 249.0
763.0 253.0
763.0 257.0
763.0 260.0
763.0 264.0
763.0 268.0
763.0 272.0
763.0 276.0
763.0 279.0
763.0 283.0
763.0 287.0
763.0 290.0
763.0 294.0
763.0 298.0
763.0 302.0
763.0 306.0
763.0 309.0
763.0 313.0
763.0 317.0
763.0 320.0
763.0 324.0
763.0 328.0
763.0 332.0
763.0 336.0
763.0 340.0
763.0 344.0
763.0 348.0
763.0 352.0
763.0 356.0
763.0 360.0
763.0 364.0
763.0 368.0
763.0 372.0
763.0 376.0
763.0 380.0
763.0 384.0
763.0 388.0
763.0 392.0
763.0 396.0
819.0 109.0
819.0 232.0
841.0 38.0
841.0 62.0
841.0 86.0
841.0 110.0
841.0 134.0
841.0 157.0
841.0 184.0
841.0 211.0
841.0 237.0
841.0 266.0
841.0 296.0
841.0 327.0
841.0 359.0
841.0 391.0
842.0 39.0
842.0 63.0
842.0 87.0
842.0 111.0
842.0 133.0
842.0 157.0
842.0 184.0
842.0 213.0
842.0 237.0
842.0 261.0
842.0 285.0
842.0 309.0
842.0 336.0
842.0 367.0
842.0 399.0
843.0 38.0
843.0 60.0
843.0 82.0
843.0 105.0
843.0 127.0
843.0 148.0
843.0 172.0
843.0 197.0
843.0 223.0
843.0 245.0
843.0 272.0
843.0 299.0
843.0 326.0
843.0 355.0
843.0 384.0
850.0 126.0
850.0 216.0
851.0 66.0
851.0 112.0
851.0 154.0
851.0 201.0
851.0 249.0
851.0 297.0
852.0 39.0
852.0 59.0
852.0 79.0
852.0 98.0
852.0 118.0
852.0 138.0
852.0 157.0
852.0 179.0
852.0 202.0
852.0 223.0
852.0 244.0
852.0 264.0
852.0 284.0
852.0 304.0
852.0 325.0
852.0 350.0
852.0 376.0
857.0 39.0
857.0 58.0
857.0 76.0
857.0 94.0
857.0 113.0
857.0 132.0
857.0 151.0
857.0 170.0
857.0 192.0
857.0 213.0
857.0 234.0
857.0 253.0
857.0 272.0
857.0 291.0
857.0 310.0
857.0 330.0
857.0 354.0
857.0 379.0
860.0 36.0
860.0 55.0
860.0 74.0
860.0 93.0
860.0 112.0
860.0 131.0
860.0 149.0
860.0 169.0
860.0 191.0
860.0 212.0
860.0 233.0
860.0 254.0
860.0 277.0
860.0 299.0
860.0 322.0
860.0 346.0
860.0 370.0
860.0 394.0
861.0 37.0
861.0 59.0
861.0 82.0
861.0 104.0
861.0 127.0
861.0 149.0
861.0 173.0
861.0 199.0
861.0 226.0
861.0 250.0
861.0 278.0
861.0 307.0
861.0 336.0
861.0 366.0
861.0 396.0
863.0 112.0
863.0 217.0
863.0 316.0
864.0 109.0
864.0 223.0
866.0 27.0
866.0 40.0
866.0 52.0
866.0 63.0
866.0 75.0
866.0 86.0
866.0 98.0
866.0 110.0
866.0 122.0
866.0 133.0
866.0 144.0
866.0 156.0
866.0 168.0
866.0 180.0
866.0 192.0
866.0 204.0
866.0 216.0
866.0 228.0
866.0 240.0
866.0 253.0
866.0 266.0
866.0 279.0
866.0 292.0
866.0 304.0
866.0 316.0
866.0 330.0
866.0 344.0
866.0 358.0
866.0 373.0
866.0 387.0
870.0 87.0
870.0 162.0
870.0 229.0
880.0 37.0
880.0 54.0
880.0 71.0
880.0 88.0
880.0 105.0
880.0 122.0
880.0 139.0
880.0 156.0
880.0 173.0
880.0 190.0
880.0 206.0
880.0 223.0
880.0 241.0
880.0 260.0
880.0 280.0
880.0 299.0
880.0 319.0
880.0 342.0
880.0 368.0
880.0 395.0
881.0 111.0
881.0 233.0
883.0 126.0
883.0 216.0
886.0 107.0
886.0 211.0
889.0 96.0
889.0 177.0
889.0 240.0
893.0 111.0
893.0 227.0
894.0 80.0
894.0 145.0
894.0 212.0
941.0 38.0
941.0 61.0
941.0 85.0
941.0 109.0
941.0 133.0
941.0 157.0
941.0 184.0
941.0 212.0
941.0 238.0
941.0 262.0
941.0 285.0
941.0 308.0
941.0 334.0
941.0 363.0
941.0 393.0
949.0 38.0
949.0 58.0
949.0 78.0
949.0 97.0
949.0 116.0
949.0 135.0
949.0 155.0
949.0 178.0
949.0 201.0
949.0 224.0
949.0 244.0
949.0 263.0
949.0 283.0
949.0 303.0
949.0 323.0
949.0 346.0
949.0 372.0
949.0 398.0
950.0 37.0
950.0 60.0
950.0 82.0
950.0 105.0
950.0 127.0
950.0 147.0
950.0 171.0
950.0 197.0
950.0 222.0
950.0 244.0
950.0 266.0
950.0 288.0
950.0 311.0
950.0 336.0
950.0 363.0
950.0 392.0
951.0 91.0
951.0 159.0
951.0 240.0
951.0 318.0
959.0 39.0
959.0 63.0
959.0 86.0
959.0 109.0
959.0 131.0
959.0 154.0
959.0 180.0
959.0 206.0
959.0 232.0
959.0 255.0
959.0 277.0
959.0 300.0
959.0 323.0
959.0 351.0
959.0 381.0
965.0 109.0
965.0 228.0
973.0 37.0
973.0 57.0
973.0 78.0
973.0 98.0
973.0 118.0
973.0 138.0
973.0 158.0
973.0 181.0
973.0 204.0
973.0 227.0
973.0 246.0
973.0 266.0
973.0 285.0
973.0 305.0
973.0 326.0
973.0 350.0
973.0 376.0
983.0 140.0
985.0 86.0
985.0 146.0
985.0 212.0
985.0 275.0
989.0 124.0
989.0 216.0
991.0 38.0
991.0 59.0
991.0 79.0
991.0 99.0
991.0 119.0
991.0 140.0
991.0 160.0
991.0 183.0
991.0 207.0
991.0 230.0
991.0 250.0
991.0 270.0
991.0 290.0
991.0 310.0
991.0 332.0
991.0 357.0
991.0 382.0
994.0 113.0
994.0 229.0
998.0 295.0
1001.0 35.0
1001.0 53.0
1001.0 71.0
1001.0 89.0
1001.0 107.0
1001.0 124.0
1001.0 141.0
1001.0 158.0
1001.0 175.0
1001.0 193.0
1001.0 210.0
1001.0 227.0
1001.0 245.0
1001.0 265.0
1001.0 286.0
1001.0 306.0
1001.0 327.0
1001.0 353.0
1001.0 381.0
1004.0 216.0
1012.0 34.0
1012.0 51.0
1012.0 68.0
1012.0 85.0
1012.0 102.0
1012.0 119.0
1012.0 136.0
1012.0 152.0
1012.0 169.0
1012.0 186.0
1012.0 203.0
1012.0 219.0
1012.0 236.0
1012.0 256.0
1012.0 276.0
1012.0 296.0
1012.0 316.0
1012.0 339.0
1012.0 366.0
1012.0 394.0
1014.0 84.0
1014.0 141.0
1014.0 214.0
1016.0 37.0
1016.0 56.0
1016.0 75.0
1016.0 94.0
1016.0 113.0
1016.0 132.0
1016.0 150.0
1016.0 169.0
1016.0 188.0
1016.0 207.0
1016.0 225.0
1016.0 244.0
1016.0 266.0
1016.0 288.0
1016.0 310.0
1016.0 334.0
1016.0 363.0
1016.0 394.0
1018.0 88.0
1018.0 172.0
1022.0 110.0
1022.0 212.0
1031.0 113.0
1031.0 224.0
1038.0 35.0
1038.0 52.0
1038.0 69.0
1038.0 86.0
1038.0 103.0
1038.0 119.0
1038.0 135.0
1038.0 152.0
1038.0 169.0
1038.0 186.0
1038.0 203.0
1038.0 220.0
1038.0 237.0
1038.0 257.0
1038.0 277.0
1038.0 297.0
1038.0 317.0
1038.0 340.0
1038.0 365.0
1038.0 392.0
1068.0 38.0
1068.0 59.0
1068.0 80.0
1068.0 101.0
1068.0 122.0
1068.0 142.0
1068.0 164.0
1068.0 188.0
1068.0 212.0
1068.0 235.0
1068.0 256.0
1068.0 277.0
1068.0 298.0
1068.0 319.0
1068.0 345.0
1068.0 372.0
1068.0 400.0
1075.0 39.0
1075.0 62.0
1075.0 84.0
1075.0 106.0
1075.0 128.0
1075.0 150.0
1075.0 174.0
1075.0 200.0
1075.0 226.0
1075.0 248.0
1075.0 270.0
1075.0 292.0
1075.0 314.0
1075.0 340.0
1075.0 368.0
1075.0 397.0
1087.0 39.0
1087.0 61.0
1087.0 83.0
1087.0 105.0
1087.0 126.0
1087.0 147.0
1087.0 168.0
1087.0 193.0
1087.0 218.0
1087.0 240.0
1087.0 261.0
1087.0 283.0
1087.0 304.0
1087.0 327.0
1087.0 355.0
1087.0 384.0
1088.0 39.0
1088.0 61.0
1088.0 83.0
1088.0 105.0
1088.0 127.0
1088.0 148.0
1088.0 173.0
1088.0 199.0
1088.0 225.0
1088.0 247.0
1088.0 269.0
1088.0 291.0
1088.0 314.0
1088.0 340.0
1088.0 368.0
1088.0 397.0
1105.0 36.0
1105.0 55.0
1105.0 74.0
1105.0 92.0
1105.0 111.0
1105.0 129.0
1105.0 147.0
1105.0 166.0
1105.0 188.0
1105.0 209.0
1105.0 229.0
1105.0 248.0
1105.0 267.0
1105.0 285.0
1105.0 304.0
1105.0 324.0
1105.0 346.0
1105.0 370.0
1105.0 394.0
1114.0 37.0
1114.0 58.0
1114.0 79.0
1114.0 100.0
1114.0 122.0
1114.0 142.0
1114.0 163.0
1114.0 187.0
1114.0 210.0
1114.0 233.0
1114.0 254.0
1114.0 275.0
1114.0 296.0
1114.0 317.0
1114.0 342.0
1114.0 369.0
1114.0 397.0
1115.0 94.0
1115.0 175.0
1115.0 269.0
1118.0 39.0
1118.0 62.0
1118.0 84.0
1118.0 106.0
1118.0 129.0
1118.0 150.0
1118.0 174.0
1118.0 201.0
1118.0 225.0
1118.0 248.0
1118.0 270.0
1118.0 292.0
1118.0 314.0
1118.0 340.0
1118.0 369.0
1118.0 398.0
1133.0 95.0
1134.0 92.0
1134.0 176.0
1135.0 38.0
1135.0 61.0
1135.0 84.0
1135.0 106.0
1135.0 129.0
1135.0 152.0
1135.0 177.0
1135.0 205.0
1135.0 232.0
1135.0 256.0
1135.0 279.0
1135.0 302.0
1135.0 327.0
1135.0 355.0
1135.0 386.0
1136.0 188.0
1144.0 144.0
1144.0 219.0
1148.0 109.0
1148.0 195.0
1156.0 34.0
1156.0 52.0
1156.0 69.0
1156.0 86.0
1156.0 103.0
1156.0 120.0
1156.0 137.0
1156.0 154.0
1156.0 171.0
1156.0 188.0
1156.0 205.0
1156.0 222.0
1156.0 240.0
1156.0 260.0
1156.0 281.0
1156.0 301.0
1156.0 321.0
1156.0 346.0
1156.0 372.0
1156.0 399.0
1165.0 35.0
1165.0 53.0
1165.0 71.0
1165.0 88.0
1165.0 107.0
1165.0 126.0
1165.0 144.0
1165.0 162.0
1165.0 180.0
1165.0 198.0
1165.0 216.0
1165.0 235.0
1165.0 256.0
1165.0 277.0
1165.0 297.0
1165.0 318.0
1165.0 344.0
1165.0 372.0
1165.0 400.0
1172.0 34.0
1172.0 52.0
1172.0 69.0
1172.0 87.0
1172.0 104.0
1172.0 121.0
1172.0 138.0
1172.0 156.0
1172.0 173.0
1172.0 190.0
1172.0 207.0
1172.0 224.0
1172.0 241.0
1172.0 261.0
1172.0 281.0
1172.0 301.0
1172.0 321.0
1172.0 345.0
1172.0 372.0
1172.0 400.0
1174.0 124.0
1174.0 194.0
1174.0 305.0
1204.0 39.0
1204.0 61.0
1204.0 83.0
1204.0 105.0
1204.0 127.0
1204.0 148.0
1204.0 171.0
1204.0 197.0
1204.0 222.0
1204.0 245.0
1204.0 267.0
1204.0 289.0
1204.0 312.0
1204.0 337.0
1204.0 365.0
1204.0 394.0
1222.0 39.0
1222.0 60.0
1222.0 81.0
1222.0 101.0
1222.0 122.0
1222.0 142.0
1222.0 162.0
1222.0 185.0
1222.0 210.0
1222.0 233.0
1222.0 254.0
1222.0 275.0
1222.0 296.0
1222.0 317.0
1222.0 342.0
1222.0 370.0
1222.0 398.0
1223.0 154.0
1225.0 92.0
1225.0 139.0
1225.0 211.0
1225.0 286.0
1226.0 38.0
1226.0 59.0
1226.0 79.0
1226.0 98.0
1226.0 118.0
1226.0 137.0
1226.0 156.0
1226.0 178.0
1226.0 201.0
1226.0 223.0
1226.0 244.0
1226.0 264.0
1226.0 284.0
1226.0 305.0
1226.0 328.0
1226.0 353.0
1226.0 380.0
1236.0 115.0
1236.0 211.0
1241.0 109.0
1241.0 195.0
1241.0 294.0
1243.0 112.0
1243.0 190.0
1243.0 275.0
1251.0 35.0
1251.0 52.0
1251.0 69.0
1251.0 86.0
1251.0 103.0
1251.0 119.0
1251.0 136.0
1251.0 152.0
1251.0 169.0
1251.0 186.0
1251.0 202.0
1251.0 218.0
1251.0 234.0
1251.0 252.0
1251.0 271.0
1251.0 291.0
1251.0 312.0
1251.0 334.0
1251.0 360.0
1251.0 386.0
1252.0 138.0
1252.0 232.0
1253.0 35.0
1253.0 54.0
1253.0 73.0
1253.0 92.0
1253.0 111.0
1253.0 130.0
1253.0 149.0
1253.0 168.0
1253.0 187.0
1253.0 206.0
1253.0 224.0
1253.0 243.0
1253.0 265.0
1253.0 288.0
1253.0 311.0
1253.0 336.0
1253.0 365.0
1253.0 395.0
1254.0 37.0
1254.0 58.0
1254.0 79.0
1254.0 100.0
1254.0 122.0
1254.0 141.0
1254.0 161.0
1254.0 185.0
1254.0 208.0
1254.0 230.0
1254.0 251.0
1254.0 272.0
1254.0 294.0
1254.0 316.0
1254.0 342.0
1254.0 370.0
1254.0 398.0
1257.0 98.0
1257.0 179.0
1257.0 285.0
1262.0 107.0
1262.0 197.0
1263.0 206.0
1271.0 195.0
1300.0 115.0
1300.0 219.0
1305.0 112.0
1305.0 211.0
1337.0 37.0
1337.0 58.0
1337.0 79.0
1337.0 100.0
1337.0 121.0
1337.0 142.0
1337.0 163.0
1337.0 187.0
1337.0 211.0
1337.0 235.0
1337.0 256.0
1337.0 277.0
1337.0 298.0
1337.0 319.0
1337.0 345.0
1337.0 373.0
1340.0 37.0
1340.0 58.0
1340.0 79.0
1340.0 100.0
1340.0 121.0
1340.0 141.0
1340.0 161.0
1340.0 185.0
1340.0 208.0
1340.0 231.0
1340.0 252.0
1340.0 273.0
1340.0 293.0
1340.0 314.0
1340.0 338.0
1340.0 365.0
1340.0 393.0
1345.0 37.0
1345.0 60.0
1345.0 82.0
1345.0 104.0
1345.0 128.0
1345.0 150.0
1345.0 174.0
1345.0 200.0
1345.0 226.0
1345.0 249.0
1345.0 271.0
1345.0 293.0
1345.0 315.0
1345.0 341.0
1345.0 369.0
1345.0 398.0
1355.0 78.0
1355.0 129.0
1355.0 192.0
1355.0 252.0
1355.0 318.0
1365.0 127.0
1365.0 210.0
1381.0 180.0
1388.0 200.0
1390.0 35.0
1390.0 52.0
1390.0 69.0
1390.0 85.0
1390.0 102.0
1390.0 118.0
1390.0 135.0
1390.0 152.0
1390.0 169.0
1390.0 186.0
1390.0 202.0
1390.0 218.0
1390.0 235.0
1390.0 254.0
1390.0 274.0
1390.0 293.0
1390.0 313.0
1390.0 334.0
1390.0 359.0
1390.0 386.0
1404.0 36.0
1404.0 54.0
1404.0 72.0
1404.0 90.0
1404.0 108.0
1404.0 126.0
1404.0 144.0
1404.0 162.0
1404.0 180.0
1404.0 198.0
1404.0 216.0
1404.0 234.0
1404.0 254.0
1404.0 274.0
1404.0 294.0
1404.0 315.0
1404.0 339.0
1404.0 367.0
1404.0 395.0
1415.0 118.0
1415.0 252.0
1417.0 40.0
1417.0 64.0
1417.0 88.0
1417.0 112.0
1417.0 136.0
1417.0 160.0
1417.0 188.0
1417.0 215.0
1417.0 241.0
1417.0 264.0
1417.0 287.0
1417.0 311.0
1417.0 339.0
1417.0 370.0
1418.0 38.0
1418.0 60.0
1418.0 82.0
1418.0 104.0
1418.0 127.0
1418.0 148.0
1418.0 170.0
1418.0 196.0
1418.0 221.0
1418.0 244.0
1418.0 266.0
1418.0 288.0
1418.0 311.0
1418.0 336.0
1418.0 364.0
1418.0 394.0
1419.0 132.0
1423.0 37.0
1423.0 58.0
1423.0 80.0
1423.0 101.0
1423.0 122.0
1423.0 143.0
1423.0 165.0
1423.0 190.0
1423.0 215.0
1423.0 238.0
1423.0 259.0
1423.0 280.0
1423.0 301.0
1423.0 323.0
1423.0 349.0
1423.0 377.0
1433.0 108.0
1433.0 285.0
1434.0 117.0
1434.0 236.0
1436.0 116.0
1436.0 216.0
1439.0 184.0
1442.0 6.0
1442.0 10.0
1442.0 14.0
1442.0 17.0
1442.0 21.0
1442.0 24.0
1442.0 28.0
1442.0 31.0
1442.0 34.0
1442.0 37.0
1442.0 40.0
1442.0 43.0
1442.0 46.0
1442.0 49.0
1442.0 52.0
1442.0 55.0
1442.0 58.0
1442.0 61.0
1442.0 64.0
1442.0 67.0
1442.0 70.0
1442.0 73.0
1442.0 76.0
1442.0 79.0
1442.0 82.0
1442.0 85.0
1442.0 88.0
1442.0 91.0
1442.0 94.0
1442.0 97.0
1442.0 100.0
1442.0 103.0
1442.0 106.0
1442.0 109.0
1442.0 112.0
1442.0 115.0
1442.0 118.0
1442.0 121.0
1442.0 124.0
1442.0 127.0
1442.0 130.0
1442.0 133.0
1442.0 136.0
1442.0 139.0
1442.0 142.0
1442.0 145.0
1442.0 148.0
1442.0 151.0
1442.0 154.0
1442.0 157.0
1442.0 160.0
1442.0 163.0
1442.0 166.0
1442.0 169.0
1442.0 172.0
1442.0 175.0
1442.0 178.0
1442.0 181.0
1442.0 184.0
1442.0 187.0
1442.0 190.0
1442.0 193.0
1442.0 196.0
1442.0 199.0
1442.0 202.0
1442.0 205.0
1442.0 208.0
1442.0 211.0
1442.0 214.0
1442.0 217.0
1442.0 220.0
1442.0 223.0
1442.0 226.0
1442.0 229.0
1442.0 232.0
1442.0 235.0
1442.0 238.0
1442.0 241.0
1442.0 244.0
1442.0 247.0
1442.0 250.0
1442.0 253.0
1442.0 256.0
1442.0 259.0
1442.0 262.0
1442.0 265.0
1442.0 268.0
1442.0 271.0
1442.0 274.0
1442.0 277.0
1442.0 280.0
1442.0 283.0
1442.0 286.0
1442.0 289.0
1442.0 292.0
1442.0 295.0
1442.0 298.0
1442.0 301.0
1442.0 304.0
1442.0 307.0
1442.0 310.0
1442.0 313.0
1442.0 316.0
1442.0 320.0
1442.0 324.0
1442.0 328.0
1442.0 331.0
1442.0 335.0
1442.0 339.0
1442.0 342.0
1442.0 346.0
1442.0 350.0
1442.0 354.0
1442.0 358.0
1442.0 362.0
1442.0 366.0
1442.0 370.0
1442.0 374.0
1442.0 378.0
1442.0 382.0
1442.0 386.0
1442.0 390.0
1442.0 394.0
1442.0 398.0
1445.0 137.0
1445.0 239.0
1446.0 103.0
1446.0 187.0
1446.0 250.0
