347.0 38.0
347.0 59.0
347.0 80.0
347.0 101.0
347.0 128.0
347.0 156.0
347.0 188.0
347.0 232.0
347.0 314.0
347.0 362.0
347.0 398.0
456.0 39.0
456.0 60.0
456.0 81.0
456.0 102.0
456.0 130.0
456.0 158.0
456.0 191.0
456.0 238.0
456.0 316.0
456.0 359.0
456.0 395.0
591.0 38.0
591.0 57.0
591.0 77.0
591.0 96.0
591.0 120.0
591.0 145.0
591.0 170.0
591.0 202.0
591.0 240.0
591.0 288.0
591.0 328.0
591.0 364.0
591.0 394.0
599.0 38.0
599.0 59.0
599.0 79.0
599.0 100.0
599.0 126.0
599.0 153.0
599.0 182.0
599.0 225.0
599.0 285.0
599.0 331.0
599.0 373.0
612.0 93.0
625.0 88.0
680.0 7.0
680.0 12.0
680.0 16.0
680.0 20.0
680.0 24.0
680.0 28.0
680.0 32.0
680.0 36.0
680.0 40.0
680.0 44.0
680.0 48.0
680.0 52.0
680.0 56.0
680.0 60.0
680.0 64.0
680.0 68.0
680.0 72.0
680.0 76.0
680.0 80.0
680.0 84.0
680.0 88.0
680.0 92.0
680.0 96.0
680.0 100.0
680.0 104.0
680.0 108.0
680.0 112.0
680.0 116.0
680.0 120.0
680.0 124.0
680.0 128.0
680.0 132.0
680.0 136.0
680.0 140.0
680.0 144.0
680.0 148.0
680.0 152.0
680.0 156.0
680.0 160.0
680.0 164.0
680.0 168.0
680.0 172.0
680.0 176.0
680.0 180.0
680.0 184.0
680.0 188.0
680.0 192.0
680.0 196.0
680.0 200.0
680.0 204.0
680.0 208.0
680.0 212.0
680.0 216.0
680.0 220.0
680.0 224.0
680.0 228.0
680.0 232.0
680.0 236.0
680.0 240.0
680.0 244.0
680.0 248.0
680.0 252.0
680.0 256.0
680.0 260.0
680.0 264.0
680.0 268.0
680.0 272.0
680.0 276.0
680.0 280.0
680.0 284.0
680.0 288.0
680.0 292.0
680.0 296.0
680.0 300.0
680.0 304.0
680.0 308.0
680.0 312.0
680.0 316.0
680.0 320.0
680.0 324.0
680.0 328.0
680.0 332.0
680.0 336.0
680.0 340.0
680.0 344.0
680.0 348.0
680.0 352.0
680.0 356.0
680.0 360.0
680.0 364.0
680.0 368.0
680.0 372.0
680.0 376.0
680.0 380.0
680.0 384.0
680.0 388.0
680.0 392.0
680.0 396.0
714.0 40.0
714.0 60.0
714.0 83.0
714.0 107.0
714.0 133.0
714.0 158.0
714.0 184.0
714.0 211.0
714.0 238.0
714.0 266.0
714.0 294.0
714.0 320.0
714.0 345.0
714.0 371.0
714.0 395.0
725.0 37.0
725.0 53.0
725.0 69.0
725.0 88.0
725.0 107.0
725.0 130.0
725.0 155.0
725.0 182.0
725.0 220.0
725.0 270.0
725.0 316.0
725.0 351.0
725.0 384.0
735.0 35.0
735.0 52.0
735.0 68.0
735.0 87.0
735.0 108.0
735.0 133.0
735.0 158.0
735.0 185.0
735.0 226.0
735.0 293.0
735.0 331.0
735.0 367.0
735.0 396.0
736.0 37.0
736.0 58.0
736.0 78.0
736.0 100.0
736.0 127.0
736.0 155.0
736.0 187.0
736.0 230.0
736.0 307.0
736.0 350.0
736.0 387.0
738.0 41.0
738.0 63.0
738.0 90.0
738.0 118.0
738.0 147.0
738.0 176.0
738.0 205.0
738.0 234.0
738.0 263.0
738.0 293.0
738.0 322.0
738.0 350.0
738.0 378.0
763.0 6.0
763.0 10.0
763.0 13.0
763.0 17.0
763.0 20.0
763.0 24.0
763.0 27.0
763.0 30.0
763.0 33.0
763.0 36.0
763.0 39.0
763.0 42.0
763.0 45.0
763.0 48.0
763.0 51.0
763.0 54.0
763.0 57.0
763.0 60.0
763.0 63.0
763.0 66.0
763.0 69.0
763.0 72.0
763.0 75.0
763.0 78.0
763.0 81.0
763.0 84.0
763.0 87.0
763.0 90.0
763.0 93.0
763.0 96.0
763.0 100.0
763.0 104.0
763.0 108.0
763.0 112.0
763.0 116.0
763.0 120.0
763.0 124.0
763.0 128.0
763.0 132.0
763.0 136.0
763.0 140.0
763.0 144.0
763.0 148.0
763.0 152.0
763.0 156.0
763.0 160.0
763.0 164.0
763.0 169.0
763.0 173.0
763.0 178.0
763.0 184.0
763.0 190.0
763.0 196.0
763.0 202.0
763.0 208.0
763.0 214.0
763.0 220.0
763.0 226.0
763.0 232.0
763.0 239.0
763.0 247.0
763.0 255.0
763.0 263.0
763.0 271.0
763.0 279.0
763.0 287.0
763.0 295.0
763.0 303.0
763.0 309.0
763.0 315.0
763.0 321.0
763.0 327.0
763.0 333.0
763.0 339.0
763.0 345.0
763.0 351.0
763.0 357.0
763.0 363.0
763.0 368.0
763.0 373.0
763.0 378.0
763.0 383.0
763.0 388.0
763.0 392.0
841.0 39.0
841.0 63.0
841.0 87.0
841.0 113.0
841.0 146.0
841.0 179.0
841.0 239.0
841.0 329.0
841.0 380.0
842.0 39.0
842.0 63.0
842.0 92.0
842.0 123.0
842.0 155.0
842.0 188.0
842.0 220.0
842.0 252.0
842.0 284.0
842.0 315.0
842.0 345.0
842.0 375.0
843.0 39.0
843.0 61.0
843.0 83.0
843.0 106.0
843.0 135.0
843.0 164.0
843.0 203.0
843.0 255.0
843.0 317.0
843.0 363.0
843.0 399.0
852.0 40.0
852.0 61.0
852.0 84.0
852.0 108.0
852.0 134.0
852.0 161.0
852.0 188.0
852.0 214.0
852.0 241.0
852.0 268.0
852.0 296.0
852.0 322.0
852.0 348.0
852.0 372.0
852.0 397.0
857.0 39.0
857.0 58.0
857.0 79.0
857.0 102.0
857.0 126.0
857.0 151.0
857.0 176.0
857.0 201.0
857.0 226.0
857.0 251.0
857.0 276.0
857.0 302.0
857.0 326.0
857.0 351.0
857.0 374.0
857.0 397.0
860.0 37.0
860.0 56.0
860.0 75.0
860.0 94.0
860.0 117.0
860.0 142.0
860.0 166.0
860.0 197.0
860.0 231.0
860.0 276.0
860.0 319.0
860.0 354.0
860.0 385.0
861.0 38.0
861.0 61.0
861.0 83.0
861.0 106.0
861.0 136.0
861.0 165.0
861.0 213.0
861.0 314.0
861.0 362.0
866.0 27.0
866.0 40.0
866.0 51.0
866.0 62.0
866.0 75.0
866.0 87.0
866.0 99.0
866.0 112.0
866.0 127.0
866.0 141.0
866.0 156.0
866.0 170.0
866.0 186.0
866.0 202.0
866.0 220.0
866.0 237.0
866.0 256.0
866.0 276.0
866.0 295.0
866.0 314.0
866.0 331.0
866.0 347.0
866.0 364.0
866.0 380.0
866.0 395.0
870.0 88.0
880.0 37.0
880.0 54.0
880.0 72.0
880.0 91.0
880.0 113.0
880.0 139.0
880.0 166.0
880.0 202.0
880.0 246.0
880.0 312.0
880.0 352.0
880.0 387.0
894.0 82.0
941.0 40.0
941.0 63.0
941.0 91.0
941.0 120.0
941.0 150.0
941.0 180.0
941.0 211.0
941.0 242.0
941.0 273.0
941.0 304.0
941.0 333.0
941.0 362.0
941.0 391.0
949.0 40.0
949.0 60.0
949.0 84.0
949.0 109.0
949.0 134.0
949.0 160.0
949.0 185.0
949.0 210.0
949.0 237.0
949.0 264.0
949.0 291.0
949.0 316.0
949.0 340.0
949.0 364.0
949.0 388.0
950.0 39.0
950.0 61.0
950.0 87.0
950.0 113.0
950.0 141.0
950.0 169.0
950.0 197.0
950.0 227.0
950.0 256.0
950.0 287.0
950.0 316.0
950.0 343.0
950.0 371.0
950.0 399.0
959.0 39.0
959.0 62.0
959.0 89.0
959.0 117.0
959.0 148.0
959.0 178.0
959.0 208.0
959.0 237.0
959.0 268.0
959.0 297.0
959.0 326.0
959.0 354.0
959.0 382.0
973.0 38.0
973.0 58.0
973.0 81.0
973.0 106.0
973.0 132.0
973.0 159.0
973.0 185.0
973.0 212.0
973.0 239.0
973.0 267.0
973.0 293.0
973.0 319.0
973.0 344.0
973.0 368.0
973.0 392.0
991.0 38.0
991.0 58.0
991.0 81.0
991.0 106.0
991.0 131.0
991.0 157.0
991.0 183.0
991.0 209.0
991.0 235.0
991.0 261.0
991.0 287.0
991.0 313.0
991.0 337.0
991.0 362.0
991.0 386.0
1001.0 35.0
1001.0 53.0
1001.0 72.0
1001.0 92.0
1001.0 115.0
1001.0 143.0
1001.0 171.0
1001.0 215.0
1001.0 300.0
1001.0 341.0
1001.0 378.0
1012.0 34.0
1012.0 51.0
1012.0 69.0
1012.0 88.0
1012.0 111.0
1012.0 139.0
1012.0 167.0
1012.0 205.0
1012.0 252.0
1012.0 307.0
1012.0 344.0
1012.0 380.0
1014.0 85.0
1016.0 37.0
1016.0 56.0
1016.0 77.0
1016.0 99.0
1016.0 128.0
1016.0 159.0
1016.0 198.0
1016.0 311.0
1016.0 357.0
1016.0 394.0
1018.0 91.0
1031.0 99.0
1038.0 35.0
1038.0 52.0
1038.0 69.0
1038.0 88.0
1038.0 108.0
1038.0 133.0
1038.0 159.0
1038.0 189.0
1038.0 229.0
1038.0 291.0
1038.0 332.0
1038.0 368.0
1038.0 397.0
1068.0 39.0
1068.0 61.0
1068.0 87.0
1068.0 113.0
1068.0 141.0
1068.0 169.0
1068.0 197.0
1068.0 225.0
1068.0 253.0
1068.0 281.0
1068.0 308.0
1068.0 335.0
1068.0 361.0
1068.0 387.0
1075.0 40.0
1075.0 62.0
1075.0 88.0
1075.0 116.0
1075.0 145.0
1075.0 174.0
1075.0 204.0
1075.0 233.0
1075.0 262.0
1075.0 292.0
1075.0 320.0
1075.0 348.0
1075.0 376.0
1087.0 40.0
1087.0 62.0
1087.0 88.0
1087.0 115.0
1087.0 144.0
1087.0 172.0
1087.0 201.0
1087.0 229.0
1087.0 259.0
1087.0 288.0
1087.0 316.0
1087.0 343.0
1087.0 369.0
1087.0 396.0
1088.0 39.0
1088.0 61.0
1088.0 87.0
1088.0 115.0
1088.0 144.0
1088.0 173.0
1088.0 203.0
1088.0 233.0
1088.0 264.0
1088.0 295.0
1088.0 324.0
1088.0 352.0
1088.0 379.0
1105.0 38.0
1105.0 57.0
1105.0 78.0
1105.0 100.0
1105.0 123.0
1105.0 147.0
1105.0 171.0
1105.0 196.0
1105.0 221.0
1105.0 246.0
1105.0 272.0
1105.0 299.0
1105.0 323.0
1105.0 346.0
1105.0 369.0
1105.0 392.0
1114.0 38.0
1114.0 58.0
1114.0 82.0
1114.0 109.0
1114.0 137.0
1114.0 165.0
1114.0 190.0
1114.0 217.0
1114.0 245.0
1114.0 273.0
1114.0 301.0
1114.0 327.0
1114.0 354.0
1114.0 381.0
1118.0 39.0
1118.0 61.0
1118.0 88.0
1118.0 117.0
1118.0 147.0
1118.0 177.0
1118.0 206.0
1118.0 235.0
1118.0 265.0
1118.0 295.0
1118.0 324.0
1118.0 353.0
1118.0 381.0
1134.0 98.0
1135.0 40.0
1135.0 63.0
1135.0 91.0
1135.0 120.0
1135.0 150.0
1135.0 182.0
1135.0 214.0
1135.0 246.0
1135.0 278.0
1135.0 307.0
1135.0 335.0
1135.0 364.0
1135.0 392.0
1156.0 34.0
1156.0 52.0
1156.0 70.0
1156.0 89.0
1156.0 112.0
1156.0 140.0
1156.0 168.0
1156.0 207.0
1156.0 260.0
1156.0 315.0
1156.0 355.0
1156.0 389.0
1165.0 35.0
1165.0 53.0
1165.0 72.0
1165.0 93.0
1165.0 119.0
1165.0 148.0
1165.0 180.0
1165.0 225.0
1165.0 307.0
1165.0 349.0
1165.0 386.0
1172.0 34.0
1172.0 52.0
1172.0 70.0
1172.0 90.0
1172.0 112.0
1172.0 140.0
1172.0 168.0
1172.0 207.0
1172.0 253.0
1172.0 311.0
1172.0 349.0
1172.0 383.0
1204.0 40.0
1204.0 62.0
1204.0 89.0
1204.0 117.0
1204.0 146.0
1204.0 175.0
1204.0 204.0
1204.0 233.0
1204.0 262.0
1204.0 292.0
1204.0 321.0
1204.0 349.0
1204.0 376.0
1222.0 39.0
1222.0 60.0
1222.0 85.0
1222.0 111.0
1222.0 138.0
1222.0 166.0
1222.0 194.0
1222.0 221.0
1222.0 248.0
1222.0 275.0
1222.0 303.0
1222.0 329.0
1222.0 355.0
1222.0 382.0
1226.0 38.0
1226.0 58.0
1226.0 81.0
1226.0 106.0
1226.0 132.0
1226.0 159.0
1226.0 185.0
1226.0 212.0
1226.0 240.0
1226.0 268.0
1226.0 296.0
1226.0 322.0
1226.0 348.0
1226.0 373.0
1226.0 398.0
1251.0 35.0
1251.0 52.0
1251.0 70.0
1251.0 89.0
1251.0 110.0
1251.0 136.0
1251.0 163.0
1251.0 197.0
1251.0 238.0
1251.0 305.0
1251.0 346.0
1251.0 381.0
1253.0 35.0
1253.0 54.0
1253.0 75.0
1253.0 97.0
1253.0 126.0
1253.0 157.0
1253.0 195.0
1253.0 309.0
1253.0 356.0
1253.0 393.0
1254.0 38.0
1254.0 59.0
1254.0 85.0
1254.0 111.0
1254.0 139.0
1254.0 167.0
1254.0 195.0
1254.0 223.0
1254.0 251.0
1254.0 280.0
1254.0 308.0
1254.0 335.0
1254.0 362.0
1254.0 388.0
1337.0 38.0
1337.0 59.0
1337.0 84.0
1337.0 110.0
1337.0 138.0
1337.0 166.0
1337.0 194.0
1337.0 222.0
1337.0 250.0
1337.0 278.0
1337.0 305.0
1337.0 331.0
1337.0 358.0
1337.0 384.0
1340.0 38.0
1340.0 59.0
1340.0 84.0
1340.0 110.0
1340.0 138.0
1340.0 166.0
1340.0 194.0
1340.0 222.0
1340.0 250.0
1340.0 278.0
1340.0 305.0
1340.0 332.0
1340.0 358.0
1340.0 384.0
1345.0 38.0
1345.0 60.0
1345.0 86.0
1345.0 113.0
1345.0 141.0
1345.0 170.0
1345.0 198.0
1345.0 226.0
1345.0 254.0
1345.0 282.0
1345.0 308.0
1345.0 334.0
1345.0 361.0
1345.0 387.0
1390.0 35.0
1390.0 52.0
1390.0 70.0
1390.0 89.0
1390.0 110.0
1390.0 138.0
1390.0 166.0
1390.0 202.0
1390.0 246.0
1390.0 310.0
1390.0 351.0
1390.0 385.0
1404.0 36.0
1404.0 54.0
1404.0 73.0
1404.0 93.0
1404.0 117.0
1404.0 146.0
1404.0 175.0
1404.0 216.0
1404.0 288.0
1404.0 334.0
1404.0 372.0
1417.0 41.0
1417.0 66.0
1417.0 94.0
1417.0 123.0
1417.0 155.0
1417.0 187.0
1417.0 219.0
1417.0 251.0
1417.0 283.0
1417.0 314.0
1417.0 344.0
1417.0 374.0
1418.0 39.0
1418.0 62.0
1418.0 89.0
1418.0 116.0
1418.0 145.0
1418.0 174.0
1418.0 203.0
1418.0 231.0
1418.0 259.0
1418.0 288.0
1418.0 315.0
1418.0 342.0
1418.0 370.0
1418.0 397.0
1423.0 38.0
1423.0 59.0
1423.0 85.0
1423.0 111.0
1423.0 139.0
1423.0 167.0
1423.0 195.0
1423.0 223.0
1423.0 251.0
1423.0 279.0
1423.0 306.0
1423.0 333.0
1423.0 359.0
1423.0 386.0
1442.0 6.0
1442.0 10.0
1442.0 14.0
1442.0 17.0
1442.0 21.0
1442.0 24.0
1442.0 28.0
1442.0 31.0
1442.0 34.0
1442.0 37.0
1442.0 40.0
1442.0 43.0
1442.0 46.0
1442.0 49.0
1442.0 52.0
1442.0 55.0
1442.0 58.0
1442.0 62.0
1442.0 66.0
1442.0 70.0
1442.0 73.0
1442.0 77.0
1442.0 81.0
1442.0 84.0
1442.0 88.0
1442.0 92.0
1442.0 96.0
1442.0 100.0
1442.0 103.0
1442.0 107.0
1442.0 111.0
1442.0 115.0
1442.0 119.0
1442.0 123.0
1442.0 127.0
1442.0 131.0
1442.0 135.0
1442.0 139.0
1442.0 143.0
1442.0 147.0
1442.0 151.0
1442.0 155.0
1442.0 159.0
1442.0 163.0
1442.0 167.0
1442.0 171.0
1442.0 175.0
1442.0 179.0
1442.0 183.0
1442.0 187.0
1442.0 191.0
1442.0 195.0
1442.0 199.0
1442.0 203.0
1442.0 207.0
1442.0 211.0
1442.0 215.0
1442.0 219.0
1442.0 223.0
1442.0 227.0
1442.0 231.0
1442.0 235.0
1442.0 239.0
1442.0 243.0
1442.0 247.0
1442.0 251.0
1442.0 255.0
1442.0 259.0
1442.0 263.0
1442.0 267.0
1442.0 271.0
1442.0 275.0
1442.0 279.0
1442.0 283.0
1442.0 287.0
1442.0 291.0
1442.0 295.0
1442.0 299.0
1442.0 302.0
1442.0 306.0
1442.0 310.0
1442.0 314.0
1442.0 318.0
1442.0 321.0
1442.0 325.0
1442.0 329.0
1442.0 332.0
1442.0 336.0
1442.0 340.0
1442.0 344.0
1442.0 348.0
1442.0 351.0
1442.0 355.0
1442.0 359.0
1442.0 362.0
1442.0 366.0
1442.0 370.0
1442.0 374.0
1442.0 378.0
1442.0 381.0
1442.0 385.0
1442.0 388.0
1442.0 392.0
1442.0 396.0
