303.0 330.0
347.0 38.0
347.0 60.0
347.0 82.0
347.0 104.0
347.0 124.0
347.0 142.0
347.0 160.0
347.0 178.0
347.0 197.0
347.0 216.0
347.0 235.0
347.0 253.0
347.0 271.0
347.0 289.0
347.0 307.0
347.0 325.0
347.0 343.0
347.0 362.0
347.0 383.0
407.0 201.0
407.0 345.0
426.0 338.0
428.0 347.0
434.0 296.0
445.0 291.0
456.0 39.0
456.0 61.0
456.0 82.0
456.0 104.0
456.0 125.0
456.0 143.0
456.0 161.0
456.0 180.0
456.0 199.0
456.0 218.0
456.0 237.0
456.0 255.0
456.0 273.0
456.0 291.0
456.0 309.0
456.0 327.0
456.0 345.0
456.0 365.0
456.0 387.0
466.0 350.0
476.0 195.0
476.0 285.0
478.0 364.0
547.0 321.0
568.0 201.0
591.0 38.0
591.0 58.0
591.0 78.0
591.0 98.0
591.0 118.0
591.0 135.0
591.0 151.0
591.0 167.0
591.0 184.0
591.0 201.0
591.0 218.0
591.0 235.0
591.0 252.0
591.0 268.0
591.0 284.0
591.0 300.0
591.0 316.0
591.0 332.0
591.0 349.0
591.0 367.0
591.0 386.0
599.0 38.0
599.0 59.0
599.0 81.0
599.0 102.0
599.0 122.0
599.0 140.0
599.0 157.0
599.0 174.0
599.0 192.0
599.0 211.0
599.0 229.0
599.0 248.0
599.0 266.0
599.0 283.0
599.0 301.0
599.0 318.0
599.0 335.0
599.0 353.0
599.0 373.0
599.0 394.0
612.0 155.0
612.0 309.0
625.0 143.0
625.0 276.0
625.0 360.0
671.0 139.0
671.0 187.0
671.0 241.0
671.0 289.0
671.0 340.0
677.0 157.0
677.0 219.0
677.0 282.0
677.0 348.0
679.0 163.0
679.0 220.0
679.0 289.0
680.0 6.0
680.0 11.0
680.0 14.0
680.0 18.0
680.0 22.0
680.0 26.0
680.0 30.0
680.0 34.0
680.0 38.0
680.0 42.0
680.0 46.0
680.0 50.0
680.0 54.0
680.0 58.0
680.0 62.0
680.0 66.0
680.0 70.0
680.0 73.0
680.0 77.0
680.0 81.0
680.0 84.0
680.0 88.0
680.0 92.0
680.0 96.0
680.0 100.0
680.0 103.0
680.0 107.0
680.0 110.0
680.0 114.0
680.0 117.0
680.0 120.0
680.0 123.0
680.0 126.0
680.0 129.0
680.0 132.0
680.0 135.0
680.0 138.0
680.0 141.0
680.0 144.0
680.0 147.0
680.0 150.0
680.0 153.0
680.0 156.0
680.0 159.0
680.0 162.0
680.0 165.0
680.0 168.0
680.0 171.0
680.0 174.0
680.0 177.0
680.0 180.0
680.0 183.0
680.0 186.0
680.0 189.0
680.0 192.0
680.0 195.0
680.0 198.0
680.0 201.0
680.0 204.0
680.0 207.0
680.0 210.0
680.0 213.0
680.0 216.0
680.0 219.0
680.0 222.0
680.0 225.0
680.0 228.0
680.0 231.0
680.0 234.0
680.0 237.0
680.0 240.0
680.0 243.0
680.0 246.0
680.0 249.0
680.0 252.0
680.0 255.0
680.0 258.0
680.0 261.0
680.0 264.0
680.0 267.0
680.0 270.0
680.0 273.0
680.0 276.0
680.0 279.0
680.0 282.0
680.0 285.0
680.0 288.0
680.0 291.0
680.0 294.0
680.0 297.0
680.0 300.0
680.0 303.0
680.0 306.0
680.0 309.0
680.0 312.0
680.0 315.0
680.0 318.0
680.0 321.0
680.0 324.0
680.0 327.0
680.0 330.0
680.0 333.0
680.0 336.0
680.0 339.0
680.0 342.0
680.0 345.0
680.0 348.0
680.0 352.0
680.0 356.0
680.0 360.0
680.0 363.0
680.0 367.0
680.0 371.0
680.0 374.0
680.0 378.0
680.0 382.0
680.0 386.0
680.0 390.0
680.0 394.0
695.0 184.0
695.0 292.0
698.0 171.0
698.0 245.0
698.0 314.0
704.0 165.0
704.0 252.0
704.0 312.0
705.0 201.0
705.0 296.0
707.0 297.0
714.0 40.0
714.0 61.0
714.0 80.0
714.0 100.0
714.0 120.0
714.0 138.0
714.0 156.0
714.0 173.0
714.0 190.0
714.0 207.0
714.0 225.0
714.0 242.0
714.0 259.0
714.0 276.0
714.0 292.0
714.0 309.0
714.0 326.0
714.0 343.0
714.0 360.0
714.0 379.0
714.0 398.0
717.0 164.0
717.0 226.0
717.0 290.0
717.0 349.0
719.0 178.0
719.0 295.0
719.0 364.0
725.0 38.0
725.0 55.0
725.0 71.0
725.0 89.0
725.0 107.0
725.0 124.0
725.0 141.0
725.0 158.0
725.0 176.0
725.0 194.0
725.0 212.0
725.0 230.0
725.0 248.0
725.0 266.0
725.0 283.0
725.0 301.0
725.0 318.0
725.0 335.0
725.0 351.0
725.0 368.0
725.0 384.0
726.0 350.0
729.0 385.0
734.0 356.0
735.0 36.0
735.0 53.0
735.0 70.0
735.0 88.0
735.0 107.0
735.0 125.0
735.0 143.0
735.0 161.0
735.0 179.0
735.0 197.0
735.0 215.0
735.0 233.0
735.0 251.0
735.0 268.0
735.0 286.0
735.0 303.0
735.0 321.0
735.0 339.0
735.0 356.0
735.0 372.0
735.0 389.0
736.0 37.0
736.0 58.0
736.0 79.0
736.0 100.0
736.0 120.0
736.0 138.0
736.0 156.0
736.0 174.0
736.0 192.0
736.0 210.0
736.0 228.0
736.0 246.0
736.0 264.0
736.0 282.0
736.0 300.0
736.0 317.0
736.0 335.0
736.0 352.0
736.0 373.0
736.0 393.0
738.0 41.0
738.0 64.0
738.0 85.0
738.0 107.0
738.0 127.0
738.0 145.0
738.0 164.0
738.0 183.0
738.0 202.0
738.0 221.0
738.0 240.0
738.0 259.0
738.0 277.0
738.0 295.0
738.0 313.0
738.0 332.0
738.0 350.0
738.0 370.0
738.0 391.0
744.0 371.0
763.0 6.0
763.0 10.0
763.0 14.0
763.0 17.0
763.0 21.0
763.0 24.0
763.0 28.0
763.0 31.0
763.0 34.0
763.0 37.0
763.0 40.0
763.0 43.0
763.0 46.0
763.0 49.0
763.0 52.0
763.0 55.0
763.0 58.0
763.0 61.0
763.0 65.0
763.0 68.0
763.0 71.0
763.0 74.0
763.0 77.0
763.0 81.0
763.0 84.0
763.0 87.0
763.0 90.0
763.0 93.0
763.0 97.0
763.0 100.0
763.0 103.0
763.0 106.0
763.0 109.0
763.0 113.0
763.0 116.0
763.0 119.0
763.0 122.0
763.0 125.0
763.0 129.0
763.0 132.0
763.0 135.0
763.0 138.0
763.0 141.0
763.0 144.0
763.0 147.0
763.0 150.0
763.0 153.0
763.0 157.0
763.0 160.0
763.0 163.0
763.0 167.0
763.0 170.0
763.0 173.0
763.0 177.0
763.0 180.0
763.0 183.0
763.0 187.0
763.0 190.0
763.0 193.0
763.0 197.0
763.0 200.0
763.0 203.0
763.0 207.0
763.0 210.0
763.0 213.0
763.0 217.0
763.0 220.0
763.0 223.0
763.0 227.0
763.0 230.0
763.0 233.0
763.0 237.0
763.0 240.0
763.0 243.0
763.0 246.0
763.0 249.0
763.0 253.0
763.0 256.0
763.0 259.0
763.0 262.0
763.0 265.0
763.0 269.0
763.0 272.0
763.0 275.0
763.0 278.0
763.0 281.0
763.0 285.0
763.0 288.0
763.0 291.0
763.0 294.0
763.0 297.0
763.0 301.0
763.0 304.0
763.0 307.0
763.0 310.0
763.0 313.0
763.0 317.0
763.0 320.0
763.0 323.0
763.0 326.0
763.0 329.0
763.0 333.0
763.0 336.0
763.0 339.0
763.0 342.0
763.0 345.0
763.0 349.0
763.0 352.0
763.0 355.0
763.0 358.0
763.0 361.0
763.0 365.0
763.0 368.0
763.0 371.0
763.0 374.0
763.0 377.0
763.0 381.0
763.0 384.0
763.0 387.0
763.0 390.0
763.0 394.0
763.0 397.0
801.0 152.0
801.0 215.0
801.0 284.0
801.0 344.0
805.0 295.0
819.0 388.0
827.0 141.0
827.0 191.0
827.0 240.0
827.0 290.0
827.0 339.0
832.0 323.0
837.0 180.0
837.0 261.0
837.0 345.0
839.0 194.0
839.0 289.0
841.0 39.0
841.0 63.0
841.0 87.0
841.0 111.0
841.0 132.0
841.0 153.0
841.0 174.0
841.0 195.0
841.0 216.0
841.0 237.0
841.0 258.0
841.0 279.0
841.0 300.0
841.0 320.0
841.0 340.0
841.0 364.0
841.0 387.0
842.0 41.0
842.0 65.0
842.0 87.0
842.0 111.0
842.0 132.0
842.0 152.0
842.0 172.0
842.0 192.0
842.0 212.0
842.0 232.0
842.0 252.0
842.0 273.0
842.0 293.0
842.0 313.0
842.0 333.0
842.0 353.0
842.0 375.0
842.0 397.0
843.0 39.0
843.0 61.0
843.0 84.0
843.0 106.0
843.0 127.0
843.0 146.0
843.0 165.0
843.0 184.0
843.0 204.0
843.0 224.0
843.0 243.0
843.0 262.0
843.0 281.0
843.0 300.0
843.0 318.0
843.0 336.0
843.0 356.0
843.0 378.0
847.0 197.0
847.0 287.0
850.0 352.0
851.0 71.0
851.0 131.0
851.0 186.0
851.0 243.0
851.0 295.0
851.0 342.0
851.0 390.0
852.0 39.0
852.0 60.0
852.0 79.0
852.0 99.0
852.0 119.0
852.0 136.0
852.0 153.0
852.0 170.0
852.0 187.0
852.0 205.0
852.0 223.0
852.0 241.0
852.0 258.0
852.0 275.0
852.0 292.0
852.0 310.0
852.0 327.0
852.0 344.0
852.0 362.0
852.0 381.0
857.0 40.0
857.0 60.0
857.0 79.0
857.0 98.0
857.0 117.0
857.0 134.0
857.0 151.0
857.0 167.0
857.0 183.0
857.0 199.0
857.0 214.0
857.0 230.0
857.0 247.0
857.0 264.0
857.0 280.0
857.0 295.0
857.0 311.0
857.0 328.0
857.0 344.0
857.0 361.0
857.0 378.0
857.0 396.0
860.0 36.0
860.0 55.0
860.0 75.0
860.0 94.0
860.0 113.0
860.0 130.0
860.0 146.0
860.0 162.0
860.0 178.0
860.0 195.0
860.0 212.0
860.0 229.0
860.0 246.0
860.0 263.0
860.0 279.0
860.0 295.0
860.0 311.0
860.0 327.0
860.0 343.0
860.0 360.0
860.0 378.0
860.0 397.0
861.0 38.0
861.0 60.0
861.0 83.0
861.0 106.0
861.0 127.0
861.0 146.0
861.0 165.0
861.0 184.0
861.0 203.0
861.0 223.0
861.0 243.0
861.0 263.0
861.0 282.0
861.0 300.0
861.0 318.0
861.0 337.0
861.0 357.0
861.0 379.0
863.0 309.0
864.0 391.0
866.0 28.0
866.0 41.0
866.0 53.0
866.0 64.0
866.0 76.0
866.0 87.0
866.0 99.0
866.0 111.0
866.0 123.0
866.0 134.0
866.0 145.0
866.0 156.0
866.0 167.0
866.0 178.0
866.0 189.0
866.0 200.0
866.0 211.0
866.0 222.0
866.0 233.0
866.0 244.0
866.0 255.0
866.0 266.0
866.0 277.0
866.0 288.0
866.0 299.0
866.0 310.0
866.0 321.0
866.0 332.0
866.0 343.0
866.0 354.0
866.0 366.0
866.0 377.0
866.0 389.0
870.0 156.0
870.0 394.0
880.0 39.0
880.0 57.0
880.0 75.0
880.0 93.0
880.0 112.0
880.0 130.0
880.0 148.0
880.0 166.0
880.0 185.0
880.0 204.0
880.0 223.0
880.0 242.0
880.0 260.0
880.0 278.0
880.0 296.0
880.0 314.0
880.0 332.0
880.0 349.0
880.0 366.0
880.0 383.0
880.0 400.0
894.0 152.0
941.0 39.0
941.0 63.0
941.0 85.0
941.0 108.0
941.0 129.0
941.0 148.0
941.0 167.0
941.0 186.0
941.0 206.0
941.0 226.0
941.0 245.0
941.0 265.0
941.0 284.0
941.0 304.0
941.0 324.0
941.0 343.0
941.0 364.0
941.0 385.0
942.0 177.0
942.0 260.0
942.0 326.0
949.0 39.0
949.0 60.0
949.0 79.0
949.0 98.0
949.0 117.0
949.0 134.0
949.0 151.0
949.0 168.0
949.0 185.0
949.0 201.0
949.0 217.0
949.0 234.0
949.0 251.0
949.0 268.0
949.0 285.0
949.0 301.0
949.0 318.0
949.0 335.0
949.0 351.0
949.0 369.0
949.0 388.0
950.0 38.0
950.0 61.0
950.0 83.0
950.0 106.0
950.0 126.0
950.0 145.0
950.0 163.0
950.0 181.0
950.0 199.0
950.0 216.0
950.0 234.0
950.0 253.0
950.0 272.0
950.0 290.0
950.0 307.0
950.0 326.0
950.0 343.0
950.0 363.0
950.0 384.0
951.0 291.0
951.0 396.0
953.0 293.0
953.0 367.0
959.0 39.0
959.0 63.0
959.0 86.0
959.0 109.0
959.0 130.0
959.0 149.0
959.0 168.0
959.0 186.0
959.0 205.0
959.0 224.0
959.0 243.0
959.0 262.0
959.0 281.0
959.0 300.0
959.0 319.0
959.0 338.0
959.0 357.0
959.0 378.0
959.0 400.0
960.0 167.0
960.0 239.0
960.0 309.0
965.0 379.0
973.0 38.0
973.0 58.0
973.0 78.0
973.0 98.0
973.0 118.0
973.0 136.0
973.0 154.0
973.0 171.0
973.0 188.0
973.0 205.0
973.0 222.0
973.0 239.0
973.0 256.0
973.0 273.0
973.0 290.0
973.0 307.0
973.0 324.0
973.0 341.0
973.0 358.0
973.0 377.0
973.0 398.0
975.0 202.0
975.0 330.0
981.0 171.0
981.0 249.0
981.0 309.0
985.0 117.0
985.0 185.0
985.0 261.0
985.0 345.0
991.0 39.0
991.0 60.0
991.0 79.0
991.0 99.0
991.0 118.0
991.0 135.0
991.0 152.0
991.0 169.0
991.0 186.0
991.0 202.0
991.0 219.0
991.0 236.0
991.0 253.0
991.0 270.0
991.0 287.0
991.0 304.0
991.0 321.0
991.0 338.0
991.0 354.0
991.0 373.0
991.0 392.0
998.0 360.0
1001.0 36.0
1001.0 55.0
1001.0 73.0
1001.0 92.0
1001.0 111.0
1001.0 130.0
1001.0 149.0
1001.0 168.0
1001.0 188.0
1001.0 207.0
1001.0 227.0
1001.0 247.0
1001.0 266.0
1001.0 285.0
1001.0 303.0
1001.0 322.0
1001.0 341.0
1001.0 359.0
1001.0 377.0
1001.0 395.0
1012.0 36.0
1012.0 54.0
1012.0 72.0
1012.0 90.0
1012.0 109.0
1012.0 128.0
1012.0 146.0
1012.0 165.0
1012.0 184.0
1012.0 203.0
1012.0 223.0
1012.0 242.0
1012.0 261.0
1012.0 279.0
1012.0 297.0
1012.0 316.0
1012.0 335.0
1012.0 353.0
1012.0 371.0
1012.0 388.0
1014.0 153.0
1016.0 38.0
1016.0 58.0
1016.0 77.0
1016.0 97.0
1016.0 117.0
1016.0 138.0
1016.0 158.0
1016.0 179.0
1016.0 200.0
1016.0 221.0
1016.0 243.0
1016.0 263.0
1016.0 284.0
1016.0 304.0
1016.0 324.0
1016.0 345.0
1016.0 365.0
1016.0 384.0
1018.0 149.0
1018.0 269.0
1018.0 350.0
1038.0 37.0
1038.0 55.0
1038.0 72.0
1038.0 90.0
1038.0 109.0
1038.0 128.0
1038.0 146.0
1038.0 164.0
1038.0 183.0
1038.0 202.0
1038.0 221.0
1038.0 240.0
1038.0 259.0
1038.0 277.0
1038.0 295.0
1038.0 313.0
1038.0 331.0
1038.0 349.0
1038.0 367.0
1038.0 385.0
1067.0 310.0
1068.0 39.0
1068.0 61.0
1068.0 81.0
1068.0 103.0
1068.0 123.0
1068.0 141.0
1068.0 159.0
1068.0 177.0
1068.0 195.0
1068.0 213.0
1068.0 231.0
1068.0 249.0
1068.0 267.0
1068.0 285.0
1068.0 303.0
1068.0 321.0
1068.0 339.0
1068.0 357.0
1068.0 377.0
1068.0 397.0
1075.0 39.0
1075.0 62.0
1075.0 84.0
1075.0 107.0
1075.0 128.0
1075.0 148.0
1075.0 167.0
1075.0 185.0
1075.0 204.0
1075.0 223.0
1075.0 242.0
1075.0 261.0
1075.0 279.0
1075.0 298.0
1075.0 317.0
1075.0 335.0
1075.0 353.0
1075.0 373.0
1075.0 394.0
1084.0 155.0
1084.0 212.0
1084.0 281.0
1084.0 344.0
1087.0 41.0
1087.0 63.0
1087.0 84.0
1087.0 106.0
1087.0 126.0
1087.0 145.0
1087.0 163.0
1087.0 181.0
1087.0 199.0
1087.0 217.0
1087.0 235.0
1087.0 254.0
1087.0 272.0
1087.0 291.0
1087.0 309.0
1087.0 327.0
1087.0 345.0
1087.0 365.0
1087.0 385.0
1088.0 41.0
1088.0 63.0
1088.0 84.0
1088.0 106.0
1088.0 127.0
1088.0 146.0
1088.0 165.0
1088.0 184.0
1088.0 203.0
1088.0 222.0
1088.0 241.0
1088.0 260.0
1088.0 279.0
1088.0 298.0
1088.0 317.0
1088.0 336.0
1088.0 355.0
1088.0 376.0
1088.0 397.0
1105.0 37.0
1105.0 56.0
1105.0 75.0
1105.0 93.0
1105.0 112.0
1105.0 130.0
1105.0 146.0
1105.0 162.0
1105.0 178.0
1105.0 194.0
1105.0 210.0
1105.0 226.0
1105.0 242.0
1105.0 258.0
1105.0 274.0
1105.0 290.0
1105.0 306.0
1105.0 322.0
1105.0 338.0
1105.0 353.0
1105.0 370.0
1105.0 387.0
1106.0 281.0
1114.0 39.0
1114.0 60.0
1114.0 80.0
1114.0 101.0
1114.0 122.0
1114.0 140.0
1114.0 158.0
1114.0 175.0
1114.0 192.0
1114.0 210.0
1114.0 228.0
1114.0 246.0
1114.0 264.0
1114.0 282.0
1114.0 300.0
1114.0 318.0
1114.0 335.0
1114.0 352.0
1114.0 372.0
1114.0 392.0
1115.0 206.0
1115.0 300.0
1115.0 376.0
1117.0 189.0
1117.0 269.0
1117.0 338.0
1118.0 40.0
1118.0 63.0
1118.0 85.0
1118.0 108.0
1118.0 129.0
1118.0 148.0
1118.0 167.0
1118.0 185.0
1118.0 204.0
1118.0 223.0
1118.0 242.0
1118.0 261.0
1118.0 280.0
1118.0 299.0
1118.0 318.0
1118.0 337.0
1118.0 355.0
1118.0 375.0
1118.0 396.0
1134.0 303.0
1135.0 40.0
1135.0 63.0
1135.0 85.0
1135.0 109.0
1135.0 130.0
1135.0 149.0
1135.0 168.0
1135.0 188.0
1135.0 207.0
1135.0 226.0
1135.0 245.0
1135.0 264.0
1135.0 284.0
1135.0 303.0
1135.0 322.0
1135.0 341.0
1135.0 361.0
1135.0 382.0
1148.0 361.0
1156.0 36.0
1156.0 55.0
1156.0 73.0
1156.0 92.0
1156.0 111.0
1156.0 130.0
1156.0 149.0
1156.0 168.0
1156.0 187.0
1156.0 206.0
1156.0 226.0
1156.0 245.0
1156.0 264.0
1156.0 282.0
1156.0 300.0
1156.0 319.0
1156.0 338.0
1156.0 355.0
1156.0 373.0
1156.0 391.0
1165.0 37.0
1165.0 56.0
1165.0 74.0
1165.0 93.0
1165.0 112.0
1165.0 132.0
1165.0 151.0
1165.0 171.0
1165.0 191.0
1165.0 211.0
1165.0 231.0
1165.0 251.0
1165.0 270.0
1165.0 289.0
1165.0 308.0
1165.0 328.0
1165.0 347.0
1165.0 367.0
1165.0 386.0
1172.0 36.0
1172.0 54.0
1172.0 72.0
1172.0 91.0
1172.0 110.0
1172.0 129.0
1172.0 148.0
1172.0 167.0
1172.0 187.0
1172.0 207.0
1172.0 227.0
1172.0 246.0
1172.0 266.0
1172.0 285.0
1172.0 304.0
1172.0 323.0
1172.0 342.0
1172.0 360.0
1172.0 378.0
1172.0 396.0
1174.0 362.0
1196.0 200.0
1196.0 305.0
1204.0 40.0
1204.0 63.0
1204.0 84.0
1204.0 106.0
1204.0 127.0
1204.0 146.0
1204.0 164.0
1204.0 182.0
1204.0 201.0
1204.0 219.0
1204.0 237.0
1204.0 256.0
1204.0 275.0
1204.0 293.0
1204.0 311.0
1204.0 330.0
1204.0 348.0
1204.0 368.0
1204.0 388.0
1205.0 181.0
1205.0 277.0
1205.0 352.0
1213.0 368.0
1222.0 40.0
1222.0 61.0
1222.0 81.0
1222.0 102.0
1222.0 123.0
1222.0 141.0
1222.0 159.0
1222.0 177.0
1222.0 195.0
1222.0 213.0
1222.0 230.0
1222.0 248.0
1222.0 266.0
1222.0 284.0
1222.0 301.0
1222.0 318.0
1222.0 336.0
1222.0 353.0
1222.0 371.0
1222.0 390.0
1223.0 364.0
1225.0 174.0
1225.0 273.0
1225.0 346.0
1226.0 38.0
1226.0 59.0
1226.0 79.0
1226.0 99.0
1226.0 118.0
1226.0 136.0
1226.0 154.0
1226.0 172.0
1226.0 189.0
1226.0 207.0
1226.0 224.0
1226.0 241.0
1226.0 258.0
1226.0 275.0
1226.0 292.0
1226.0 309.0
1226.0 326.0
1226.0 343.0
1226.0 361.0
1226.0 380.0
1226.0 399.0
1241.0 256.0
1241.0 345.0
1243.0 355.0
1244.0 183.0
1244.0 311.0
1251.0 37.0
1251.0 55.0
1251.0 72.0
1251.0 90.0
1251.0 109.0
1251.0 127.0
1251.0 145.0
1251.0 163.0
1251.0 183.0
1251.0 201.0
1251.0 219.0
1251.0 238.0
1251.0 256.0
1251.0 274.0
1251.0 292.0
1251.0 310.0
1251.0 328.0
1251.0 346.0
1251.0 363.0
1251.0 380.0
1251.0 397.0
1253.0 36.0
1253.0 55.0
1253.0 74.0
1253.0 94.0
1253.0 114.0
1253.0 135.0
1253.0 155.0
1253.0 176.0
1253.0 197.0
1253.0 219.0
1253.0 240.0
1253.0 261.0
1253.0 282.0
1253.0 302.0
1253.0 323.0
1253.0 343.0
1253.0 363.0
1253.0 382.0
1254.0 39.0
1254.0 61.0
1254.0 82.0
1254.0 104.0
1254.0 125.0
1254.0 144.0
1254.0 162.0
1254.0 180.0
1254.0 198.0
1254.0 216.0
1254.0 235.0
1254.0 253.0
1254.0 271.0
1254.0 289.0
1254.0 307.0
1254.0 325.0
1254.0 343.0
1254.0 361.0
1254.0 381.0
1257.0 356.0
1263.0 359.0
1337.0 39.0
1337.0 60.0
1337.0 81.0
1337.0 102.0
1337.0 123.0
1337.0 141.0
1337.0 159.0
1337.0 177.0
1337.0 195.0
1337.0 213.0
1337.0 231.0
1337.0 249.0
1337.0 267.0
1337.0 285.0
1337.0 303.0
1337.0 321.0
1337.0 339.0
1337.0 356.0
1337.0 377.0
1337.0 398.0
1340.0 39.0
1340.0 60.0
1340.0 80.0
1340.0 101.0
1340.0 122.0
1340.0 140.0
1340.0 158.0
1340.0 176.0
1340.0 194.0
1340.0 212.0
1340.0 230.0
1340.0 248.0
1340.0 266.0
1340.0 284.0
1340.0 302.0
1340.0 320.0
1340.0 338.0
1340.0 355.0
1340.0 374.0
1340.0 392.0
1345.0 38.0
1345.0 60.0
1345.0 82.0
1345.0 104.0
1345.0 125.0
1345.0 144.0
1345.0 162.0
1345.0 180.0
1345.0 199.0
1345.0 218.0
1345.0 237.0
1345.0 256.0
1345.0 275.0
1345.0 294.0
1345.0 314.0
1345.0 333.0
1345.0 351.0
1345.0 371.0
1345.0 392.0
1355.0 81.0
1355.0 195.0
1355.0 308.0
1355.0 382.0
1365.0 376.0
1390.0 37.0
1390.0 55.0
1390.0 72.0
1390.0 90.0
1390.0 109.0
1390.0 128.0
1390.0 146.0
1390.0 164.0
1390.0 183.0
1390.0 202.0
1390.0 220.0
1390.0 239.0
1390.0 257.0
1390.0 275.0
1390.0 293.0
1390.0 311.0
1390.0 329.0
1390.0 347.0
1390.0 364.0
1390.0 382.0
1390.0 400.0
1404.0 38.0
1404.0 56.0
1404.0 74.0
1404.0 93.0
1404.0 112.0
1404.0 131.0
1404.0 150.0
1404.0 170.0
1404.0 190.0
1404.0 210.0
1404.0 230.0
1404.0 250.0
1404.0 269.0
1404.0 288.0
1404.0 307.0
1404.0 327.0
1404.0 346.0
1404.0 364.0
1404.0 382.0
1404.0 400.0
1417.0 41.0
1417.0 65.0
1417.0 88.0
1417.0 111.0
1417.0 132.0
1417.0 153.0
1417.0 173.0
1417.0 193.0
1417.0 212.0
1417.0 232.0
1417.0 252.0
1417.0 272.0
1417.0 292.0
1417.0 311.0
1417.0 331.0
1417.0 350.0
1417.0 372.0
1417.0 395.0
1418.0 40.0
1418.0 63.0
1418.0 85.0
1418.0 108.0
1418.0 129.0
1418.0 148.0
1418.0 167.0
1418.0 186.0
1418.0 205.0
1418.0 224.0
1418.0 243.0
1418.0 262.0
1418.0 281.0
1418.0 300.0
1418.0 319.0
1418.0 338.0
1418.0 356.0
1418.0 377.0
1418.0 398.0
1419.0 349.0
1423.0 39.0
1423.0 61.0
1423.0 82.0
1423.0 104.0
1423.0 124.0
1423.0 142.0
1423.0 160.0
1423.0 178.0
1423.0 196.0
1423.0 214.0
1423.0 232.0
1423.0 250.0
1423.0 268.0
1423.0 286.0
1423.0 304.0
1423.0 322.0
1423.0 340.0
1423.0 358.0
1423.0 378.0
1423.0 399.0
1433.0 195.0
1433.0 348.0
1434.0 395.0
1436.0 381.0
1439.0 373.0
1442.0 6.0
1442.0 10.0
1442.0 14.0
1442.0 18.0
1442.0 22.0
1442.0 25.0
1442.0 29.0
1442.0 32.0
1442.0 36.0
1442.0 39.0
1442.0 42.0
1442.0 45.0
1442.0 48.0
1442.0 51.0
1442.0 54.0
1442.0 57.0
1442.0 60.0
1442.0 63.0
1442.0 66.0
1442.0 69.0
1442.0 72.0
1442.0 75.0
1442.0 78.0
1442.0 81.0
1442.0 85.0
1442.0 88.0
1442.0 91.0
1442.0 94.0
1442.0 97.0
1442.0 101.0
1442.0 104.0
1442.0 107.0
1442.0 110.0
1442.0 113.0
1442.0 117.0
1442.0 120.0
1442.0 123.0
1442.0 126.0
1442.0 129.0
1442.0 133.0
1442.0 136.0
1442.0 139.0
1442.0 142.0
1442.0 145.0
1442.0 149.0
1442.0 152.0
1442.0 155.0
1442.0 158.0
1442.0 161.0
1442.0 165.0
1442.0 168.0
1442.0 171.0
1442.0 174.0
1442.0 177.0
1442.0 181.0
1442.0 184.0
1442.0 187.0
1442.0 190.0
1442.0 193.0
1442.0 197.0
1442.0 200.0
1442.0 203.0
1442.0 206.0
1442.0 209.0
1442.0 213.0
1442.0 216.0
1442.0 219.0
1442.0 222.0
1442.0 225.0
1442.0 229.0
1442.0 232.0
1442.0 235.0
1442.0 238.0
1442.0 241.0
1442.0 245.0
1442.0 248.0
1442.0 251.0
1442.0 254.0
1442.0 257.0
1442.0 261.0
1442.0 264.0
1442.0 267.0
1442.0 270.0
1442.0 273.0
1442.0 277.0
1442.0 280.0
1442.0 283.0
1442.0 286.0
1442.0 289.0
1442.0 293.0
1442.0 296.0
1442.0 299.0
1442.0 302.0
1442.0 305.0
1442.0 309.0
1442.0 312.0
1442.0 315.0
1442.0 318.0
1442.0 322.0
1442.0 325.0
1442.0 328.0
1442.0 331.0
1442.0 334.0
1442.0 337.0
1442.0 340.0
1442.0 343.0
1442.0 346.0
1442.0 349.0
1442.0 352.0
1442.0 355.0
1442.0 358.0
1442.0 361.0
1442.0 364.0
1442.0 367.0
1442.0 370.0
1442.0 373.0
1442.0 376.0
1442.0 379.0
1442.0 382.0
1442.0 385.0
1442.0 388.0
1442.0 391.0
1442.0 394.0
1442.0 397.0
1445.0 353.0
1446.0 352.0
