241.0 126.0
334.0 126.0
347.0 37.0
347.0 58.0
347.0 78.0
347.0 98.0
347.0 116.0
347.0 135.0
347.0 155.0
347.0 176.0
347.0 197.0
347.0 217.0
347.0 237.0
347.0 257.0
347.0 277.0
347.0 297.0
347.0 318.0
347.0 340.0
347.0 364.0
347.0 390.0
407.0 194.0
407.0 314.0
428.0 293.0
456.0 38.0
456.0 59.0
456.0 79.0
456.0 99.0
456.0 117.0
456.0 137.0
456.0 158.0
456.0 179.0
456.0 200.0
456.0 221.0
456.0 242.0
456.0 262.0
456.0 282.0
456.0 303.0
456.0 324.0
456.0 348.0
456.0 374.0
466.0 122.0
475.0 119.0
591.0 36.0
591.0 55.0
591.0 74.0
591.0 94.0
591.0 111.0
591.0 127.0
591.0 145.0
591.0 163.0
591.0 181.0
591.0 200.0
591.0 219.0
591.0 238.0
591.0 257.0
591.0 275.0
591.0 294.0
591.0 313.0
591.0 332.0
591.0 354.0
591.0 377.0
599.0 37.0
599.0 57.0
599.0 77.0
599.0 97.0
599.0 115.0
599.0 133.0
599.0 152.0
599.0 172.0
599.0 192.0
599.0 212.0
599.0 232.0
599.0 252.0
599.0 271.0
599.0 290.0
599.0 309.0
599.0 329.0
599.0 353.0
599.0 378.0
605.0 122.0
612.0 104.0
625.0 85.0
671.0 124.0
671.0 187.0
671.0 247.0
671.0 301.0
677.0 159.0
677.0 237.0
677.0 304.0
679.0 151.0
679.0 244.0
680.0 6.0
680.0 10.0
680.0 14.0
680.0 18.0
680.0 22.0
680.0 25.0
680.0 29.0
680.0 33.0
680.0 36.0
680.0 40.0
680.0 44.0
680.0 48.0
680.0 52.0
680.0 55.0
680.0 59.0
680.0 63.0
680.0 66.0
680.0 70.0
680.0 74.0
680.0 78.0
680.0 82.0
680.0 85.0
680.0 89.0
680.0 92.0
680.0 96.0
680.0 99.0
680.0 102.0
680.0 105.0
680.0 108.0
680.0 111.0
680.0 114.0
680.0 117.0
680.0 120.0
680.0 123.0
680.0 126.0
680.0 129.0
680.0 132.0
680.0 135.0
680.0 138.0
680.0 141.0
680.0 144.0
680.0 147.0
680.0 150.0
680.0 153.0
680.0 156.0
680.0 159.0
680.0 162.0
680.0 165.0
680.0 168.0
680.0 171.0
680.0 174.0
680.0 177.0
680.0 180.0
680.0 183.0
680.0 186.0
680.0 189.0
680.0 192.0
680.0 195.0
680.0 198.0
680.0 201.0
680.0 204.0
680.0 207.0
680.0 210.0
680.0 213.0
680.0 216.0
680.0 219.0
680.0 222.0
680.0 225.0
680.0 228.0
680.0 231.0
680.0 234.0
680.0 237.0
680.0 240.0
680.0 243.0
680.0 246.0
680.0 249.0
680.0 252.0
680.0 255.0
680.0 258.0
680.0 261.0
680.0 264.0
680.0 267.0
680.0 270.0
680.0 273.0
680.0 276.0
680.0 279.0
680.0 282.0
680.0 285.0
680.0 288.0
680.0 291.0
680.0 294.0
680.0 297.0
680.0 300.0
680.0 303.0
680.0 306.0
680.0 309.0
680.0 312.0
680.0 315.0
680.0 318.0
680.0 321.0
680.0 324.0
680.0 328.0
680.0 332.0
680.0 336.0
680.0 339.0
680.0 343.0
680.0 347.0
680.0 350.0
680.0 354.0
680.0 358.0
680.0 362.0
680.0 366.0
680.0 369.0
680.0 373.0
680.0 377.0
680.0 381.0
680.0 385.0
680.0 389.0
680.0 393.0
680.0 398.0
695.0 169.0
695.0 283.0
698.0 185.0
698.0 281.0
704.0 171.0
704.0 285.0
714.0 42.0
714.0 66.0
714.0 91.0
714.0 113.0
714.0 133.0
714.0 153.0
714.0 174.0
714.0 194.0
714.0 214.0
714.0 234.0
714.0 254.0
714.0 274.0
714.0 294.0
714.0 314.0
714.0 335.0
714.0 360.0
714.0 386.0
717.0 145.0
717.0 230.0
717.0 310.0
725.0 39.0
725.0 58.0
725.0 78.0
725.0 98.0
725.0 117.0
725.0 139.0
725.0 162.0
725.0 184.0
725.0 207.0
725.0 230.0
725.0 254.0
725.0 277.0
725.0 300.0
725.0 323.0
725.0 346.0
725.0 369.0
725.0 392.0
726.0 117.0
735.0 38.0
735.0 58.0
735.0 78.0
735.0 98.0
735.0 118.0
735.0 140.0
735.0 164.0
735.0 187.0
735.0 210.0
735.0 234.0
735.0 258.0
735.0 282.0
735.0 305.0
735.0 329.0
735.0 353.0
735.0 378.0
736.0 36.0
736.0 57.0
736.0 77.0
736.0 98.0
736.0 117.0
736.0 136.0
736.0 156.0
736.0 176.0
736.0 196.0
736.0 215.0
736.0 235.0
736.0 255.0
736.0 275.0
736.0 295.0
736.0 315.0
736.0 335.0
736.0 359.0
736.0 383.0
738.0 42.0
738.0 69.0
738.0 95.0
738.0 118.0
738.0 139.0
738.0 160.0
738.0 182.0
738.0 204.0
738.0 226.0
738.0 247.0
738.0 268.0
738.0 290.0
738.0 312.0
738.0 334.0
738.0 360.0
738.0 388.0
754.0 115.0
763.0 6.0
763.0 10.0
763.0 13.0
763.0 17.0
763.0 20.0
763.0 24.0
763.0 27.0
763.0 30.0
763.0 33.0
763.0 36.0
763.0 39.0
763.0 42.0
763.0 45.0
763.0 48.0
763.0 51.0
763.0 54.0
763.0 57.0
763.0 60.0
763.0 63.0
763.0 66.0
763.0 69.0
763.0 72.0
763.0 75.0
763.0 78.0
763.0 81.0
763.0 84.0
763.0 87.0
763.0 90.0
763.0 93.0
763.0 96.0
763.0 99.0
763.0 102.0
763.0 105.0
763.0 108.0
763.0 111.0
763.0 114.0
763.0 117.0
763.0 120.0
763.0 124.0
763.0 128.0
763.0 132.0
763.0 135.0
763.0 139.0
763.0 143.0
763.0 146.0
763.0 150.0
763.0 154.0
763.0 158.0
763.0 162.0
763.0 165.0
763.0 169.0
763.0 173.0
763.0 176.0
763.0 180.0
763.0 184.0
763.0 188.0
763.0 192.0
763.0 195.0
763.0 199.0
763.0 203.0
763.0 206.0
763.0 210.0
763.0 214.0
763.0 218.0
763.0 222.0
763.0 225.0
763.0 229.0
763.0 233.0
763.0 236.0
763.0 240.0
763.0 244.0
763.0 248.0
763.0 252.0
763.0 255.0
763.0 259.0
763.0 263.0
763.0 266.0
763.0 270.0
763.0 274.0
763.0 278.0
763.0 282.0
763.0 285.0
763.0 289.0
763.0 293.0
763.0 296.0
763.0 300.0
763.0 304.0
763.0 308.0
763.0 312.0
763.0 315.0
763.0 319.0
763.0 323.0
763.0 326.0
763.0 330.0
763.0 334.0
763.0 338.0
763.0 342.0
763.0 345.0
763.0 349.0
763.0 353.0
763.0 356.0
763.0 360.0
763.0 364.0
763.0 368.0
763.0 372.0
763.0 375.0
763.0 379.0
763.0 383.0
763.0 386.0
763.0 390.0
763.0 394.0
801.0 140.0
801.0 218.0
801.0 287.0
827.0 123.0
827.0 182.0
827.0 239.0
827.0 299.0
837.0 180.0
837.0 279.0
839.0 244.0
841.0 37.0
841.0 60.0
841.0 83.0
841.0 104.0
841.0 123.0
841.0 145.0
841.0 168.0
841.0 191.0
841.0 214.0
841.0 237.0
841.0 261.0
841.0 284.0
841.0 306.0
841.0 329.0
841.0 356.0
841.0 385.0
842.0 41.0
842.0 70.0
842.0 99.0
842.0 123.0
842.0 146.0
842.0 169.0
842.0 193.0
842.0 217.0
842.0 241.0
842.0 265.0
842.0 289.0
842.0 313.0
842.0 339.0
842.0 369.0
843.0 37.0
843.0 58.0
843.0 79.0
843.0 99.0
843.0 117.0
843.0 136.0
843.0 156.0
843.0 177.0
843.0 198.0
843.0 219.0
843.0 241.0
843.0 262.0
843.0 283.0
843.0 303.0
843.0 324.0
843.0 349.0
843.0 374.0
852.0 40.0
852.0 64.0
852.0 89.0
852.0 110.0
852.0 130.0
852.0 151.0
852.0 171.0
852.0 191.0
852.0 210.0
852.0 230.0
852.0 251.0
852.0 271.0
852.0 290.0
852.0 310.0
852.0 331.0
852.0 355.0
852.0 380.0
857.0 42.0
857.0 66.0
857.0 89.0
857.0 110.0
857.0 129.0
857.0 148.0
857.0 167.0
857.0 186.0
857.0 205.0
857.0 224.0
857.0 243.0
857.0 261.0
857.0 281.0
857.0 301.0
857.0 320.0
857.0 341.0
857.0 364.0
857.0 388.0
860.0 35.0
860.0 53.0
860.0 71.0
860.0 90.0
860.0 107.0
860.0 123.0
860.0 141.0
860.0 159.0
860.0 177.0
860.0 196.0
860.0 214.0
860.0 233.0
860.0 252.0
860.0 270.0
860.0 288.0
860.0 306.0
860.0 324.0
860.0 344.0
860.0 365.0
860.0 387.0
861.0 37.0
861.0 59.0
861.0 80.0
861.0 101.0
861.0 119.0
861.0 139.0
861.0 161.0
861.0 182.0
861.0 203.0
861.0 224.0
861.0 245.0
861.0 266.0
861.0 287.0
861.0 308.0
861.0 330.0
861.0 356.0
861.0 383.0
866.0 28.0
866.0 42.0
866.0 54.0
866.0 66.0
866.0 78.0
866.0 91.0
866.0 103.0
866.0 115.0
866.0 126.0
866.0 138.0
866.0 150.0
866.0 163.0
866.0 175.0
866.0 187.0
866.0 199.0
866.0 211.0
866.0 223.0
866.0 235.0
866.0 247.0
866.0 259.0
866.0 271.0
866.0 283.0
866.0 295.0
866.0 307.0
866.0 319.0
866.0 331.0
866.0 345.0
866.0 359.0
866.0 373.0
866.0 387.0
870.0 91.0
880.0 40.0
880.0 60.0
880.0 81.0
880.0 102.0
880.0 122.0
880.0 147.0
880.0 172.0
880.0 198.0
880.0 224.0
880.0 248.0
880.0 272.0
880.0 297.0
880.0 322.0
880.0 347.0
880.0 371.0
880.0 396.0
881.0 123.0
889.0 126.0
894.0 86.0
941.0 42.0
941.0 70.0
941.0 98.0
941.0 122.0
941.0 145.0
941.0 168.0
941.0 190.0
941.0 213.0
941.0 236.0
941.0 259.0
941.0 282.0
941.0 305.0
941.0 328.0
941.0 357.0
941.0 386.0
942.0 158.0
942.0 260.0
949.0 41.0
949.0 66.0
949.0 90.0
949.0 111.0
949.0 130.0
949.0 150.0
949.0 170.0
949.0 190.0
949.0 210.0
949.0 230.0
949.0 250.0
949.0 270.0
949.0 289.0
949.0 308.0
949.0 327.0
949.0 351.0
949.0 376.0
950.0 40.0
950.0 67.0
950.0 93.0
950.0 116.0
950.0 138.0
950.0 159.0
950.0 180.0
950.0 201.0
950.0 222.0
950.0 244.0
950.0 265.0
950.0 286.0
950.0 308.0
950.0 330.0
950.0 357.0
950.0 385.0
959.0 41.0
959.0 70.0
959.0 98.0
959.0 122.0
959.0 144.0
959.0 166.0
959.0 188.0
959.0 210.0
959.0 233.0
959.0 255.0
959.0 277.0
959.0 299.0
959.0 321.0
959.0 347.0
959.0 375.0
960.0 197.0
960.0 272.0
973.0 40.0
973.0 64.0
973.0 89.0
973.0 111.0
973.0 131.0
973.0 151.0
973.0 172.0
973.0 192.0
973.0 212.0
973.0 232.0
973.0 253.0
973.0 273.0
973.0 292.0
973.0 312.0
973.0 333.0
973.0 357.0
973.0 382.0
981.0 148.0
981.0 253.0
989.0 120.0
991.0 41.0
991.0 65.0
991.0 90.0
991.0 112.0
991.0 132.0
991.0 152.0
991.0 172.0
991.0 192.0
991.0 212.0
991.0 232.0
991.0 252.0
991.0 271.0
991.0 290.0
991.0 309.0
991.0 329.0
991.0 353.0
991.0 378.0
1001.0 38.0
1001.0 60.0
1001.0 82.0
1001.0 104.0
1001.0 125.0
1001.0 151.0
1001.0 177.0
1001.0 204.0
1001.0 230.0
1001.0 257.0
1001.0 284.0
1001.0 309.0
1001.0 335.0
1001.0 361.0
1001.0 388.0
1012.0 36.0
1012.0 57.0
1012.0 78.0
1012.0 99.0
1012.0 120.0
1012.0 144.0
1012.0 169.0
1012.0 195.0
1012.0 221.0
1012.0 245.0
1012.0 269.0
1012.0 294.0
1012.0 319.0
1012.0 345.0
1012.0 371.0
1012.0 397.0
1014.0 99.0
1016.0 41.0
1016.0 64.0
1016.0 87.0
1016.0 110.0
1016.0 134.0
1016.0 162.0
1016.0 190.0
1016.0 218.0
1016.0 246.0
1016.0 274.0
1016.0 302.0
1016.0 331.0
1016.0 360.0
1016.0 389.0
1018.0 97.0
1038.0 38.0
1038.0 58.0
1038.0 78.0
1038.0 98.0
1038.0 118.0
1038.0 142.0
1038.0 167.0
1038.0 191.0
1038.0 215.0
1038.0 239.0
1038.0 263.0
1038.0 288.0
1038.0 314.0
1038.0 338.0
1038.0 363.0
1038.0 389.0
1068.0 41.0
1068.0 67.0
1068.0 94.0
1068.0 117.0
1068.0 138.0
1068.0 159.0
1068.0 180.0
1068.0 201.0
1068.0 222.0
1068.0 243.0
1068.0 264.0
1068.0 285.0
1068.0 306.0
1068.0 327.0
1068.0 353.0
1068.0 380.0
1075.0 42.0
1075.0 70.0
1075.0 97.0
1075.0 120.0
1075.0 143.0
1075.0 166.0
1075.0 187.0
1075.0 210.0
1075.0 232.0
1075.0 255.0
1075.0 277.0
1075.0 298.0
1075.0 321.0
1075.0 347.0
1075.0 374.0
1084.0 167.0
1084.0 257.0
1087.0 42.0
1087.0 69.0
1087.0 95.0
1087.0 117.0
1087.0 139.0
1087.0 161.0
1087.0 183.0
1087.0 205.0
1087.0 226.0
1087.0 247.0
1087.0 269.0
1087.0 291.0
1087.0 313.0
1087.0 337.0
1087.0 363.0
1087.0 390.0
1088.0 41.0
1088.0 69.0
1088.0 97.0
1088.0 120.0
1088.0 142.0
1088.0 165.0
1088.0 187.0
1088.0 209.0
1088.0 231.0
1088.0 253.0
1088.0 274.0
1088.0 297.0
1088.0 319.0
1088.0 345.0
1088.0 373.0
1105.0 40.0
1105.0 64.0
1105.0 87.0
1105.0 108.0
1105.0 127.0
1105.0 146.0
1105.0 165.0
1105.0 184.0
1105.0 203.0
1105.0 221.0
1105.0 240.0
1105.0 259.0
1105.0 278.0
1105.0 297.0
1105.0 316.0
1105.0 336.0
1105.0 359.0
1105.0 382.0
1114.0 41.0
1114.0 67.0
1114.0 92.0
1114.0 115.0
1114.0 136.0
1114.0 157.0
1114.0 177.0
1114.0 197.0
1114.0 217.0
1114.0 237.0
1114.0 258.0
1114.0 279.0
1114.0 299.0
1114.0 320.0
1114.0 344.0
1114.0 369.0
1114.0 394.0
1117.0 275.0
1118.0 41.0
1118.0 69.0
1118.0 97.0
1118.0 120.0
1118.0 143.0
1118.0 165.0
1118.0 187.0
1118.0 209.0
1118.0 232.0
1118.0 255.0
1118.0 276.0
1118.0 298.0
1118.0 320.0
1118.0 345.0
1118.0 373.0
1134.0 108.0
1135.0 43.0
1135.0 72.0
1135.0 100.0
1135.0 123.0
1135.0 145.0
1135.0 168.0
1135.0 191.0
1135.0 214.0
1135.0 237.0
1135.0 259.0
1135.0 282.0
1135.0 305.0
1135.0 327.0
1135.0 355.0
1135.0 384.0
1136.0 109.0
1156.0 37.0
1156.0 58.0
1156.0 79.0
1156.0 100.0
1156.0 121.0
1156.0 146.0
1156.0 172.0
1156.0 199.0
1156.0 226.0
1156.0 252.0
1156.0 277.0
1156.0 303.0
1156.0 329.0
1156.0 356.0
1156.0 382.0
1165.0 37.0
1165.0 58.0
1165.0 79.0
1165.0 101.0
1165.0 123.0
1165.0 149.0
1165.0 176.0
1165.0 203.0
1165.0 229.0
1165.0 257.0
1165.0 285.0
1165.0 311.0
1165.0 337.0
1165.0 363.0
1165.0 389.0
1172.0 37.0
1172.0 58.0
1172.0 79.0
1172.0 100.0
1172.0 121.0
1172.0 147.0
1172.0 173.0
1172.0 199.0
1172.0 225.0
1172.0 250.0
1172.0 275.0
1172.0 301.0
1172.0 327.0
1172.0 353.0
1172.0 379.0
1196.0 266.0
1204.0 42.0
1204.0 69.0
1204.0 97.0
1204.0 120.0
1204.0 142.0
1204.0 164.0
1204.0 185.0
1204.0 207.0
1204.0 229.0
1204.0 251.0
1204.0 272.0
1204.0 294.0
1204.0 316.0
1204.0 341.0
1204.0 368.0
1204.0 397.0
1205.0 266.0
1222.0 42.0
1222.0 68.0
1222.0 93.0
1222.0 115.0
1222.0 136.0
1222.0 156.0
1222.0 177.0
1222.0 198.0
1222.0 219.0
1222.0 240.0
1222.0 260.0
1222.0 281.0
1222.0 302.0
1222.0 322.0
1222.0 345.0
1222.0 371.0
1222.0 397.0
1226.0 40.0
1226.0 65.0
1226.0 89.0
1226.0 112.0
1226.0 132.0
1226.0 152.0
1226.0 172.0
1226.0 192.0
1226.0 212.0
1226.0 232.0
1226.0 253.0
1226.0 273.0
1226.0 293.0
1226.0 313.0
1226.0 335.0
1226.0 360.0
1226.0 385.0
1251.0 38.0
1251.0 59.0
1251.0 79.0
1251.0 99.0
1251.0 120.0
1251.0 143.0
1251.0 168.0
1251.0 194.0
1251.0 219.0
1251.0 243.0
1251.0 268.0
1251.0 293.0
1251.0 318.0
1251.0 342.0
1251.0 366.0
1251.0 392.0
1253.0 38.0
1253.0 61.0
1253.0 84.0
1253.0 107.0
1253.0 131.0
1253.0 159.0
1253.0 187.0
1253.0 215.0
1253.0 243.0
1253.0 271.0
1253.0 300.0
1253.0 329.0
1253.0 358.0
1253.0 387.0
1254.0 41.0
1254.0 67.0
1254.0 93.0
1254.0 116.0
1254.0 138.0
1254.0 159.0
1254.0 180.0
1254.0 201.0
1254.0 223.0
1254.0 245.0
1254.0 267.0
1254.0 288.0
1254.0 310.0
1254.0 331.0
1254.0 357.0
1254.0 384.0
1337.0 40.0
1337.0 66.0
1337.0 92.0
1337.0 115.0
1337.0 136.0
1337.0 157.0
1337.0 178.0
1337.0 199.0
1337.0 220.0
1337.0 241.0
1337.0 262.0
1337.0 283.0
1337.0 303.0
1337.0 324.0
1337.0 348.0
1337.0 375.0
1340.0 41.0
1340.0 67.0
1340.0 93.0
1340.0 116.0
1340.0 137.0
1340.0 158.0
1340.0 179.0
1340.0 200.0
1340.0 221.0
1340.0 243.0
1340.0 264.0
1340.0 284.0
1340.0 305.0
1340.0 326.0
1340.0 351.0
1340.0 376.0
1345.0 42.0
1345.0 70.0
1345.0 96.0
1345.0 118.0
1345.0 139.0
1345.0 161.0
1345.0 183.0
1345.0 204.0
1345.0 225.0
1345.0 246.0
1345.0 267.0
1345.0 288.0
1345.0 310.0
1345.0 331.0
1345.0 356.0
1345.0 383.0
1390.0 39.0
1390.0 60.0
1390.0 81.0
1390.0 102.0
1390.0 123.0
1390.0 147.0
1390.0 172.0
1390.0 198.0
1390.0 223.0
1390.0 247.0
1390.0 272.0
1390.0 297.0
1390.0 322.0
1390.0 348.0
1390.0 373.0
1390.0 397.0
1404.0 39.0
1404.0 61.0
1404.0 82.0
1404.0 104.0
1404.0 126.0
1404.0 152.0
1404.0 179.0
1404.0 205.0
1404.0 232.0
1404.0 259.0
1404.0 285.0
1404.0 311.0
1404.0 337.0
1404.0 363.0
1404.0 389.0
1417.0 43.0
1417.0 72.0
1417.0 100.0
1417.0 124.0
1417.0 147.0
1417.0 170.0
1417.0 193.0
1417.0 216.0
1417.0 240.0
1417.0 262.0
1417.0 285.0
1417.0 309.0
1417.0 333.0
1417.0 361.0
1417.0 392.0
1418.0 42.0
1418.0 69.0
1418.0 96.0
1418.0 120.0
1418.0 141.0
1418.0 163.0
1418.0 185.0
1418.0 207.0
1418.0 229.0
1418.0 252.0
1418.0 274.0
1418.0 296.0
1418.0 318.0
1418.0 343.0
1418.0 370.0
1418.0 399.0
1423.0 41.0
1423.0 67.0
1423.0 93.0
1423.0 115.0
1423.0 136.0
1423.0 157.0
1423.0 178.0
1423.0 199.0
1423.0 220.0
1423.0 241.0
1423.0 262.0
1423.0 283.0
1423.0 304.0
1423.0 325.0
1423.0 350.0
1423.0 376.0
1442.0 6.0
1442.0 11.0
1442.0 16.0
1442.0 20.0
1442.0 24.0
1442.0 28.0
1442.0 32.0
1442.0 36.0
1442.0 40.0
1442.0 44.0
1442.0 48.0
1442.0 52.0
1442.0 56.0
1442.0 60.0
1442.0 64.0
1442.0 68.0
1442.0 72.0
1442.0 76.0
1442.0 80.0
1442.0 84.0
1442.0 88.0
1442.0 92.0
1442.0 96.0
1442.0 100.0
1442.0 104.0
1442.0 108.0
1442.0 112.0
1442.0 116.0
1442.0 120.0
1442.0 124.0
1442.0 128.0
1442.0 132.0
1442.0 136.0
1442.0 140.0
1442.0 144.0
1442.0 148.0
1442.0 152.0
1442.0 156.0
1442.0 160.0
1442.0 164.0
1442.0 168.0
1442.0 172.0
1442.0 176.0
1442.0 180.0
1442.0 184.0
1442.0 188.0
1442.0 192.0
1442.0 196.0
1442.0 200.0
1442.0 204.0
1442.0 208.0
1442.0 212.0
1442.0 216.0
1442.0 220.0
1442.0 224.0
1442.0 228.0
1442.0 232.0
1442.0 236.0
1442.0 240.0
1442.0 244.0
1442.0 248.0
1442.0 252.0
1442.0 256.0
1442.0 260.0
1442.0 264.0
1442.0 268.0
1442.0 272.0
1442.0 276.0
1442.0 280.0
1442.0 284.0
1442.0 288.0
1442.0 292.0
1442.0 296.0
1442.0 300.0
1442.0 304.0
1442.0 308.0
1442.0 312.0
1442.0 316.0
1442.0 320.0
1442.0 324.0
1442.0 328.0
1442.0 332.0
1442.0 336.0
1442.0 340.0
1442.0 344.0
1442.0 348.0
1442.0 352.0
1442.0 356.0
1442.0 360.0
1442.0 364.0
1442.0 368.0
1442.0 372.0
1442.0 376.0
1442.0 380.0
1442.0 384.0
1442.0 388.0
1442.0 392.0
1442.0 396.0
