224.0 232.0
232.0 221.0
235.0 247.0
235.0 343.0
241.0 133.0
241.0 220.0
241.0 337.0
334.0 139.0
334.0 223.0
334.0 340.0
347.0 40.0
347.0 62.0
347.0 84.0
347.0 105.0
347.0 126.0
347.0 147.0
347.0 168.0
347.0 189.0
347.0 210.0
347.0 231.0
347.0 252.0
347.0 273.0
347.0 297.0
347.0 324.0
347.0 351.0
347.0 379.0
366.0 200.0
366.0 356.0
449.0 217.0
449.0 349.0
456.0 41.0
456.0 63.0
456.0 85.0
456.0 106.0
456.0 127.0
456.0 148.0
456.0 170.0
456.0 191.0
456.0 212.0
456.0 232.0
456.0 253.0
456.0 274.0
456.0 298.0
456.0 325.0
456.0 352.0
456.0 380.0
466.0 138.0
466.0 223.0
466.0 322.0
475.0 128.0
475.0 212.0
475.0 302.0
478.0 149.0
478.0 215.0
478.0 301.0
493.0 226.0
589.0 207.0
591.0 39.0
591.0 59.0
591.0 78.0
591.0 99.0
591.0 119.0
591.0 139.0
591.0 158.0
591.0 177.0
591.0 197.0
591.0 217.0
591.0 236.0
591.0 255.0
591.0 275.0
591.0 297.0
591.0 323.0
591.0 349.0
591.0 374.0
599.0 40.0
599.0 61.0
599.0 82.0
599.0 104.0
599.0 125.0
599.0 145.0
599.0 166.0
599.0 187.0
599.0 208.0
599.0 229.0
599.0 251.0
599.0 272.0
599.0 296.0
599.0 324.0
599.0 351.0
599.0 380.0
601.0 194.0
601.0 323.0
605.0 135.0
605.0 204.0
605.0 280.0
612.0 105.0
612.0 174.0
612.0 244.0
612.0 327.0
613.0 209.0
615.0 232.0
625.0 89.0
625.0 156.0
625.0 231.0
625.0 302.0
625.0 359.0
632.0 138.0
632.0 207.0
632.0 306.0
649.0 205.0
680.0 7.0
680.0 13.0
680.0 18.0
680.0 22.0
680.0 26.0
680.0 30.0
680.0 34.0
680.0 38.0
680.0 42.0
680.0 46.0
680.0 50.0
680.0 54.0
680.0 58.0
680.0 62.0
680.0 66.0
680.0 70.0
680.0 74.0
680.0 78.0
680.0 82.0
680.0 86.0
680.0 90.0
680.0 94.0
680.0 98.0
680.0 102.0
680.0 106.0
680.0 110.0
680.0 114.0
680.0 118.0
680.0 122.0
680.0 126.0
680.0 130.0
680.0 134.0
680.0 138.0
680.0 142.0
680.0 146.0
680.0 150.0
680.0 154.0
680.0 158.0
680.0 162.0
680.0 166.0
680.0 170.0
680.0 174.0
680.0 178.0
680.0 182.0
680.0 186.0
680.0 190.0
680.0 194.0
680.0 198.0
680.0 202.0
680.0 206.0
680.0 210.0
680.0 214.0
680.0 218.0
680.0 222.0
680.0 226.0
680.0 230.0
680.0 234.0
680.0 238.0
680.0 242.0
680.0 246.0
680.0 250.0
680.0 254.0
680.0 258.0
680.0 262.0
680.0 266.0
680.0 271.0
680.0 275.0
680.0 281.0
680.0 286.0
680.0 291.0
680.0 297.0
680.0 303.0
680.0 309.0
680.0 315.0
680.0 321.0
680.0 327.0
680.0 333.0
680.0 339.0
680.0 345.0
680.0 351.0
680.0 357.0
680.0 363.0
680.0 369.0
680.0 375.0
680.0 381.0
680.0 389.0
714.0 44.0
714.0 69.0
714.0 95.0
714.0 119.0
714.0 144.0
714.0 165.0
714.0 184.0
714.0 204.0
714.0 224.0
714.0 244.0
714.0 263.0
714.0 284.0
714.0 309.0
714.0 335.0
714.0 359.0
714.0 395.0
719.0 189.0
719.0 270.0
725.0 40.0
725.0 60.0
725.0 80.0
725.0 99.0
725.0 118.0
725.0 138.0
725.0 155.0
725.0 171.0
725.0 187.0
725.0 203.0
725.0 219.0
725.0 235.0
725.0 252.0
725.0 269.0
725.0 285.0
725.0 302.0
725.0 319.0
725.0 336.0
725.0 353.0
725.0 372.0
725.0 392.0
726.0 123.0
726.0 192.0
726.0 268.0
726.0 340.0
729.0 189.0
729.0 276.0
734.0 228.0
734.0 327.0
735.0 37.0
735.0 57.0
735.0 77.0
735.0 97.0
735.0 116.0
735.0 135.0
735.0 153.0
735.0 170.0
735.0 186.0
735.0 202.0
735.0 218.0
735.0 234.0
735.0 251.0
735.0 268.0
735.0 284.0
735.0 300.0
735.0 316.0
735.0 333.0
735.0 350.0
735.0 368.0
735.0 387.0
736.0 40.0
736.0 61.0
736.0 82.0
736.0 104.0
736.0 125.0
736.0 145.0
736.0 167.0
736.0 188.0
736.0 209.0
736.0 229.0
736.0 251.0
736.0 272.0
736.0 295.0
736.0 323.0
736.0 349.0
736.0 377.0
738.0 45.0
738.0 73.0
738.0 100.0
738.0 128.0
738.0 153.0
738.0 175.0
738.0 196.0
738.0 217.0
738.0 239.0
738.0 261.0
738.0 284.0
738.0 311.0
738.0 340.0
738.0 375.0
744.0 210.0
744.0 300.0
754.0 149.0
754.0 237.0
762.0 150.0
762.0 228.0
762.0 348.0
763.0 6.0
763.0 10.0
763.0 14.0
763.0 17.0
763.0 21.0
763.0 24.0
763.0 28.0
763.0 31.0
763.0 34.0
763.0 37.0
763.0 40.0
763.0 43.0
763.0 46.0
763.0 49.0
763.0 52.0
763.0 55.0
763.0 58.0
763.0 61.0
763.0 64.0
763.0 67.0
763.0 70.0
763.0 73.0
763.0 76.0
763.0 79.0
763.0 82.0
763.0 85.0
763.0 88.0
763.0 91.0
763.0 94.0
763.0 97.0
763.0 100.0
763.0 103.0
763.0 106.0
763.0 109.0
763.0 112.0
763.0 115.0
763.0 118.0
763.0 121.0
763.0 124.0
763.0 127.0
763.0 130.0
763.0 133.0
763.0 136.0
763.0 139.0
763.0 142.0
763.0 145.0
763.0 148.0
763.0 151.0
763.0 154.0
763.0 157.0
763.0 160.0
763.0 163.0
763.0 166.0
763.0 169.0
763.0 172.0
763.0 175.0
763.0 178.0
763.0 181.0
763.0 184.0
763.0 187.0
763.0 190.0
763.0 193.0
763.0 196.0
763.0 199.0
763.0 202.0
763.0 205.0
763.0 208.0
763.0 211.0
763.0 214.0
763.0 217.0
763.0 220.0
763.0 223.0
763.0 226.0
763.0 229.0
763.0 232.0
763.0 235.0
763.0 238.0
763.0 241.0
763.0 244.0
763.0 247.0
763.0 250.0
763.0 253.0
763.0 256.0
763.0 259.0
763.0 262.0
763.0 265.0
763.0 268.0
763.0 271.0
763.0 274.0
763.0 277.0
763.0 280.0
763.0 283.0
763.0 286.0
763.0 289.0
763.0 292.0
763.0 295.0
763.0 298.0
763.0 301.0
763.0 304.0
763.0 307.0
763.0 310.0
763.0 313.0
763.0 316.0
763.0 319.0
763.0 322.0
763.0 325.0
763.0 328.0
763.0 331.0
763.0 334.0
763.0 337.0
763.0 340.0
763.0 343.0
763.0 346.0
763.0 349.0
763.0 352.0
763.0 355.0
763.0 358.0
763.0 361.0
763.0 364.0
763.0 367.0
763.0 370.0
763.0 373.0
763.0 376.0
763.0 379.0
763.0 382.0
763.0 385.0
763.0 388.0
763.0 391.0
763.0 394.0
763.0 397.0
819.0 204.0
819.0 291.0
841.0 41.0
841.0 65.0
841.0 89.0
841.0 113.0
841.0 136.0
841.0 160.0
841.0 184.0
841.0 206.0
841.0 229.0
841.0 253.0
841.0 278.0
841.0 308.0
841.0 340.0
841.0 372.0
842.0 45.0
842.0 77.0
842.0 107.0
842.0 137.0
842.0 161.0
842.0 185.0
842.0 209.0
842.0 232.0
842.0 257.0
842.0 282.0
842.0 311.0
842.0 342.0
842.0 384.0
843.0 41.0
843.0 63.0
843.0 85.0
843.0 107.0
843.0 129.0
843.0 151.0
843.0 173.0
843.0 195.0
843.0 217.0
843.0 238.0
843.0 260.0
843.0 284.0
843.0 313.0
843.0 343.0
843.0 372.0
850.0 233.0
851.0 161.0
851.0 203.0
851.0 246.0
851.0 296.0
851.0 344.0
852.0 43.0
852.0 68.0
852.0 94.0
852.0 118.0
852.0 142.0
852.0 163.0
852.0 183.0
852.0 202.0
852.0 222.0
852.0 242.0
852.0 262.0
852.0 285.0
852.0 310.0
852.0 335.0
852.0 361.0
852.0 398.0
857.0 44.0
857.0 68.0
857.0 92.0
857.0 114.0
857.0 137.0
857.0 157.0
857.0 176.0
857.0 194.0
857.0 212.0
857.0 230.0
857.0 249.0
857.0 268.0
857.0 288.0
857.0 311.0
857.0 335.0
857.0 359.0
857.0 396.0
860.0 39.0
860.0 59.0
860.0 79.0
860.0 99.0
860.0 119.0
860.0 139.0
860.0 159.0
860.0 179.0
860.0 198.0
860.0 216.0
860.0 234.0
860.0 252.0
860.0 271.0
860.0 293.0
860.0 317.0
860.0 341.0
860.0 365.0
860.0 392.0
861.0 40.0
861.0 63.0
861.0 86.0
861.0 108.0
861.0 129.0
861.0 151.0
861.0 174.0
861.0 196.0
861.0 219.0
861.0 240.0
861.0 263.0
861.0 287.0
861.0 318.0
861.0 347.0
861.0 376.0
863.0 190.0
863.0 256.0
863.0 345.0
864.0 198.0
864.0 300.0
866.0 29.0
866.0 43.0
866.0 56.0
866.0 69.0
866.0 82.0
866.0 95.0
866.0 108.0
866.0 121.0
866.0 133.0
866.0 145.0
866.0 157.0
866.0 168.0
866.0 180.0
866.0 192.0
866.0 204.0
866.0 215.0
866.0 227.0
866.0 239.0
866.0 251.0
866.0 263.0
866.0 274.0
866.0 287.0
866.0 299.0
866.0 312.0
866.0 325.0
866.0 338.0
866.0 351.0
866.0 364.0
866.0 378.0
866.0 393.0
870.0 94.0
870.0 172.0
870.0 241.0
870.0 310.0
870.0 392.0
880.0 40.0
880.0 61.0
880.0 82.0
880.0 102.0
880.0 122.0
880.0 142.0
880.0 160.0
880.0 178.0
880.0 195.0
880.0 212.0
880.0 229.0
880.0 246.0
880.0 263.0
880.0 280.0
880.0 297.0
880.0 314.0
880.0 331.0
880.0 347.0
880.0 364.0
880.0 384.0
881.0 117.0
881.0 219.0
881.0 330.0
883.0 163.0
883.0 242.0
883.0 334.0
886.0 197.0
889.0 121.0
889.0 199.0
889.0 265.0
889.0 337.0
893.0 150.0
893.0 243.0
893.0 348.0
894.0 89.0
894.0 171.0
894.0 242.0
894.0 305.0
894.0 386.0
941.0 44.0
941.0 76.0
941.0 105.0
941.0 133.0
941.0 158.0
941.0 181.0
941.0 204.0
941.0 228.0
941.0 251.0
941.0 275.0
941.0 306.0
941.0 337.0
941.0 373.0
949.0 43.0
949.0 69.0
949.0 95.0
949.0 119.0
949.0 142.0
949.0 162.0
949.0 182.0
949.0 202.0
949.0 222.0
949.0 242.0
949.0 262.0
949.0 283.0
949.0 306.0
949.0 331.0
949.0 356.0
949.0 390.0
950.0 43.0
950.0 72.0
950.0 100.0
950.0 129.0
950.0 154.0
950.0 176.0
950.0 198.0
950.0 218.0
950.0 239.0
950.0 261.0
950.0 284.0
950.0 312.0
950.0 339.0
950.0 373.0
951.0 192.0
951.0 272.0
951.0 356.0
959.0 44.0
959.0 75.0
959.0 103.0
959.0 131.0
959.0 156.0
959.0 179.0
959.0 202.0
959.0 224.0
959.0 247.0
959.0 269.0
959.0 296.0
959.0 326.0
959.0 356.0
965.0 197.0
965.0 329.0
973.0 42.0
973.0 67.0
973.0 94.0
973.0 119.0
973.0 142.0
973.0 162.0
973.0 182.0
973.0 202.0
973.0 222.0
973.0 242.0
973.0 262.0
973.0 283.0
973.0 308.0
973.0 334.0
973.0 359.0
973.0 396.0
985.0 175.0
985.0 226.0
985.0 304.0
989.0 125.0
989.0 206.0
989.0 331.0
991.0 43.0
991.0 69.0
991.0 95.0
991.0 120.0
991.0 144.0
991.0 164.0
991.0 184.0
991.0 204.0
991.0 224.0
991.0 244.0
991.0 265.0
991.0 287.0
991.0 313.0
991.0 340.0
991.0 370.0
992.0 204.0
994.0 183.0
994.0 260.0
1001.0 38.0
1001.0 60.0
1001.0 82.0
1001.0 102.0
1001.0 122.0
1001.0 142.0
1001.0 160.0
1001.0 178.0
1001.0 195.0
1001.0 212.0
1001.0 229.0
1001.0 246.0
1001.0 263.0
1001.0 280.0
1001.0 298.0
1001.0 316.0
1001.0 334.0
1001.0 351.0
1001.0 370.0
1001.0 390.0
1010.0 258.0
1012.0 37.0
1012.0 58.0
1012.0 79.0
1012.0 100.0
1012.0 120.0
1012.0 139.0
1012.0 156.0
1012.0 173.0
1012.0 190.0
1012.0 206.0
1012.0 222.0
1012.0 239.0
1012.0 256.0
1012.0 274.0
1012.0 291.0
1012.0 308.0
1012.0 325.0
1012.0 343.0
1012.0 359.0
1012.0 379.0
1012.0 398.0
1014.0 94.0
1014.0 163.0
1014.0 229.0
1014.0 298.0
1014.0 358.0
1016.0 40.0
1016.0 63.0
1016.0 86.0
1016.0 108.0
1016.0 130.0
1016.0 151.0
1016.0 169.0
1016.0 188.0
1016.0 206.0
1016.0 224.0
1016.0 243.0
1016.0 262.0
1016.0 280.0
1016.0 299.0
1016.0 318.0
1016.0 337.0
1016.0 355.0
1016.0 376.0
1016.0 398.0
1018.0 111.0
1018.0 194.0
1018.0 282.0
1018.0 384.0
1022.0 126.0
1022.0 208.0
1022.0 318.0
1028.0 263.0
1031.0 111.0
1031.0 204.0
1031.0 315.0
1031.0 390.0
1038.0 37.0
1038.0 58.0
1038.0 78.0
1038.0 98.0
1038.0 116.0
1038.0 135.0
1038.0 153.0
1038.0 170.0
1038.0 187.0
1038.0 204.0
1038.0 220.0
1038.0 237.0
1038.0 254.0
1038.0 271.0
1038.0 288.0
1038.0 305.0
1038.0 322.0
1038.0 339.0
1038.0 356.0
1038.0 375.0
1038.0 394.0
1068.0 44.0
1068.0 73.0
1068.0 101.0
1068.0 129.0
1068.0 153.0
1068.0 174.0
1068.0 195.0
1068.0 216.0
1068.0 237.0
1068.0 258.0
1068.0 280.0
1068.0 306.0
1068.0 333.0
1068.0 361.0
1075.0 44.0
1075.0 74.0
1075.0 102.0
1075.0 130.0
1075.0 155.0
1075.0 177.0
1075.0 199.0
1075.0 222.0
1075.0 244.0
1075.0 266.0
1075.0 291.0
1075.0 320.0
1075.0 349.0
1075.0 386.0
1087.0 45.0
1087.0 73.0
1087.0 101.0
1087.0 128.0
1087.0 153.0
1087.0 174.0
1087.0 195.0
1087.0 217.0
1087.0 238.0
1087.0 260.0
1087.0 284.0
1087.0 312.0
1087.0 341.0
1087.0 374.0
1088.0 44.0
1088.0 73.0
1088.0 102.0
1088.0 129.0
1088.0 154.0
1088.0 176.0
1088.0 198.0
1088.0 221.0
1088.0 243.0
1088.0 265.0
1088.0 290.0
1088.0 319.0
1088.0 348.0
1088.0 385.0
1105.0 42.0
1105.0 66.0
1105.0 90.0
1105.0 112.0
1105.0 135.0
1105.0 155.0
1105.0 174.0
1105.0 193.0
1105.0 211.0
1105.0 229.0
1105.0 247.0
1105.0 266.0
1105.0 286.0
1105.0 308.0
1105.0 332.0
1105.0 357.0
1105.0 388.0
1114.0 43.0
1114.0 69.0
1114.0 96.0
1114.0 123.0
1114.0 147.0
1114.0 168.0
1114.0 189.0
1114.0 208.0
1114.0 228.0
1114.0 249.0
1114.0 271.0
1114.0 295.0
1114.0 321.0
1114.0 349.0
1114.0 382.0
1115.0 177.0
1115.0 249.0
1115.0 339.0
1118.0 44.0
1118.0 74.0
1118.0 103.0
1118.0 131.0
1118.0 155.0
1118.0 178.0
1118.0 200.0
1118.0 223.0
1118.0 244.0
1118.0 267.0
1118.0 293.0
1118.0 321.0
1118.0 351.0
1118.0 396.0
1133.0 186.0
1134.0 123.0
1134.0 184.0
1134.0 252.0
1134.0 336.0
1135.0 45.0
1135.0 76.0
1135.0 105.0
1135.0 134.0
1135.0 158.0
1135.0 181.0
1135.0 204.0
1135.0 228.0
1135.0 250.0
1135.0 272.0
1135.0 299.0
1135.0 329.0
1135.0 358.0
1136.0 149.0
1136.0 335.0
1144.0 212.0
1144.0 354.0
1148.0 122.0
1148.0 200.0
1148.0 292.0
1156.0 37.0
1156.0 58.0
1156.0 79.0
1156.0 100.0
1156.0 120.0
1156.0 140.0
1156.0 157.0
1156.0 175.0
1156.0 192.0
1156.0 209.0
1156.0 226.0
1156.0 244.0
1156.0 261.0
1156.0 278.0
1156.0 295.0
1156.0 313.0
1156.0 330.0
1156.0 347.0
1156.0 365.0
1156.0 384.0
1165.0 37.0
1165.0 59.0
1165.0 80.0
1165.0 101.0
1165.0 121.0
1165.0 142.0
1165.0 161.0
1165.0 179.0
1165.0 197.0
1165.0 216.0
1165.0 235.0
1165.0 253.0
1165.0 271.0
1165.0 289.0
1165.0 307.0
1165.0 326.0
1165.0 344.0
1165.0 363.0
1165.0 385.0
1172.0 37.0
1172.0 58.0
1172.0 79.0
1172.0 99.0
1172.0 119.0
1172.0 139.0
1172.0 157.0
1172.0 174.0
1172.0 191.0
1172.0 208.0
1172.0 225.0
1172.0 242.0
1172.0 259.0
1172.0 276.0
1172.0 293.0
1172.0 310.0
1172.0 327.0
1172.0 344.0
1172.0 362.0
1172.0 382.0
1174.0 195.0
1174.0 267.0
1174.0 351.0
1204.0 44.0
1204.0 72.0
1204.0 100.0
1204.0 128.0
1204.0 153.0
1204.0 175.0
1204.0 197.0
1204.0 218.0
1204.0 240.0
1204.0 263.0
1204.0 287.0
1204.0 314.0
1204.0 344.0
1204.0 382.0
1222.0 44.0
1222.0 71.0
1222.0 97.0
1222.0 124.0
1222.0 148.0
1222.0 169.0
1222.0 190.0
1222.0 210.0
1222.0 230.0
1222.0 250.0
1222.0 271.0
1222.0 295.0
1222.0 322.0
1222.0 349.0
1222.0 384.0
1223.0 199.0
1225.0 180.0
1225.0 237.0
1225.0 304.0
1226.0 43.0
1226.0 70.0
1226.0 96.0
1226.0 120.0
1226.0 144.0
1226.0 164.0
1226.0 183.0
1226.0 203.0
1226.0 222.0
1226.0 242.0
1226.0 262.0
1226.0 284.0
1226.0 307.0
1226.0 332.0
1226.0 358.0
1226.0 396.0
1236.0 209.0
1236.0 353.0
1241.0 201.0
1241.0 281.0
1243.0 202.0
1243.0 291.0
1251.0 37.0
1251.0 58.0
1251.0 79.0
1251.0 99.0
1251.0 119.0
1251.0 138.0
1251.0 155.0
1251.0 172.0
1251.0 189.0
1251.0 206.0
1251.0 222.0
1251.0 238.0
1251.0 255.0
1251.0 272.0
1251.0 289.0
1251.0 306.0
1251.0 323.0
1251.0 340.0
1251.0 357.0
1251.0 376.0
1251.0 396.0
1252.0 167.0
1252.0 250.0
1252.0 343.0
1253.0 38.0
1253.0 61.0
1253.0 84.0
1253.0 106.0
1253.0 128.0
1253.0 148.0
1253.0 167.0
1253.0 186.0
1253.0 205.0
1253.0 223.0
1253.0 241.0
1253.0 260.0
1253.0 279.0
1253.0 298.0
1253.0 316.0
1253.0 335.0
1253.0 354.0
1253.0 376.0
1253.0 399.0
1254.0 44.0
1254.0 73.0
1254.0 100.0
1254.0 126.0
1254.0 150.0
1254.0 171.0
1254.0 192.0
1254.0 212.0
1254.0 233.0
1254.0 253.0
1254.0 275.0
1254.0 298.0
1254.0 325.0
1254.0 351.0
1254.0 387.0
1257.0 191.0
1257.0 253.0
1257.0 352.0
1262.0 132.0
1262.0 204.0
1262.0 288.0
1263.0 207.0
1271.0 233.0
1300.0 155.0
1300.0 253.0
1305.0 146.0
1305.0 242.0
1305.0 347.0
1337.0 43.0
1337.0 70.0
1337.0 97.0
1337.0 124.0
1337.0 148.0
1337.0 169.0
1337.0 190.0
1337.0 211.0
1337.0 232.0
1337.0 253.0
1337.0 274.0
1337.0 297.0
1337.0 324.0
1337.0 351.0
1337.0 387.0
1340.0 43.0
1340.0 70.0
1340.0 97.0
1340.0 123.0
1340.0 147.0
1340.0 168.0
1340.0 189.0
1340.0 208.0
1340.0 228.0
1340.0 249.0
1340.0 270.0
1340.0 293.0
1340.0 320.0
1340.0 346.0
1340.0 380.0
1345.0 44.0
1345.0 73.0
1345.0 100.0
1345.0 126.0
1345.0 151.0
1345.0 173.0
1345.0 194.0
1345.0 216.0
1345.0 238.0
1345.0 260.0
1345.0 282.0
1345.0 311.0
1345.0 341.0
1345.0 381.0
1355.0 176.0
1355.0 231.0
1355.0 284.0
1355.0 338.0
1365.0 204.0
1365.0 299.0
1381.0 184.0
1388.0 195.0
1390.0 38.0
1390.0 58.0
1390.0 78.0
1390.0 98.0
1390.0 117.0
1390.0 136.0
1390.0 154.0
1390.0 171.0
1390.0 188.0
1390.0 205.0
1390.0 221.0
1390.0 238.0
1390.0 255.0
1390.0 272.0
1390.0 289.0
1390.0 306.0
1390.0 323.0
1390.0 340.0
1390.0 356.0
1390.0 375.0
1390.0 395.0
1398.0 237.0
1404.0 39.0
1404.0 61.0
1404.0 83.0
1404.0 104.0
1404.0 125.0
1404.0 145.0
1404.0 163.0
1404.0 181.0
1404.0 198.0
1404.0 215.0
1404.0 233.0
1404.0 250.0
1404.0 267.0
1404.0 284.0
1404.0 302.0
1404.0 320.0
1404.0 338.0
1404.0 355.0
1404.0 375.0
1404.0 395.0
1415.0 212.0
1415.0 299.0
1417.0 46.0
1417.0 77.0
1417.0 107.0
1417.0 136.0
1417.0 160.0
1417.0 184.0
1417.0 208.0
1417.0 232.0
1417.0 256.0
1417.0 281.0
1417.0 310.0
1417.0 340.0
1417.0 382.0
1418.0 44.0
1418.0 73.0
1418.0 101.0
1418.0 128.0
1418.0 152.0
1418.0 175.0
1418.0 197.0
1418.0 219.0
1418.0 241.0
1418.0 263.0
1418.0 287.0
1418.0 315.0
1418.0 343.0
1418.0 382.0
1419.0 200.0
1423.0 44.0
1423.0 73.0
1423.0 100.0
1423.0 127.0
1423.0 151.0
1423.0 172.0
1423.0 193.0
1423.0 214.0
1423.0 235.0
1423.0 256.0
1423.0 278.0
1423.0 303.0
1423.0 331.0
1423.0 358.0
1433.0 186.0
1433.0 272.0
1434.0 206.0
1436.0 209.0
1436.0 302.0
1439.0 193.0
1439.0 342.0
1442.0 6.0
1442.0 11.0
1442.0 14.0
1442.0 19.0
1442.0 22.0
1442.0 26.0
1442.0 30.0
1442.0 34.0
1442.0 38.0
1442.0 42.0
1442.0 46.0
1442.0 50.0
1442.0 54.0
1442.0 58.0
1442.0 62.0
1442.0 66.0
1442.0 70.0
1442.0 74.0
1442.0 78.0
1442.0 82.0
1442.0 86.0
1442.0 90.0
1442.0 93.0
1442.0 97.0
1442.0 101.0
1442.0 104.0
1442.0 108.0
1442.0 112.0
1442.0 116.0
1442.0 120.0
1442.0 123.0
1442.0 127.0
1442.0 131.0
1442.0 134.0
1442.0 138.0
1442.0 141.0
1442.0 144.0
1442.0 147.0
1442.0 150.0
1442.0 153.0
1442.0 156.0
1442.0 159.0
1442.0 162.0
1442.0 165.0
1442.0 168.0
1442.0 171.0
1442.0 174.0
1442.0 177.0
1442.0 180.0
1442.0 183.0
1442.0 186.0
1442.0 189.0
1442.0 192.0
1442.0 195.0
1442.0 198.0
1442.0 201.0
1442.0 204.0
1442.0 207.0
1442.0 210.0
1442.0 213.0
1442.0 216.0
1442.0 219.0
1442.0 222.0
1442.0 225.0
1442.0 228.0
1442.0 231.0
1442.0 234.0
1442.0 237.0
1442.0 240.0
1442.0 243.0
1442.0 246.0
1442.0 249.0
1442.0 252.0
1442.0 255.0
1442.0 258.0
1442.0 261.0
1442.0 264.0
1442.0 267.0
1442.0 270.0
1442.0 273.0
1442.0 276.0
1442.0 279.0
1442.0 282.0
1442.0 285.0
1442.0 288.0
1442.0 291.0
1442.0 294.0
1442.0 297.0
1442.0 300.0
1442.0 303.0
1442.0 306.0
1442.0 309.0
1442.0 312.0
1442.0 315.0
1442.0 318.0
1442.0 321.0
1442.0 324.0
1442.0 327.0
1442.0 330.0
1442.0 333.0
1442.0 336.0
1442.0 339.0
1442.0 342.0
1442.0 345.0
1442.0 348.0
1442.0 351.0
1442.0 354.0
1442.0 358.0
1442.0 362.0
1442.0 366.0
1442.0 369.0
1442.0 373.0
1442.0 377.0
1442.0 380.0
1442.0 384.0
1442.0 388.0
1442.0 392.0
1442.0 396.0
1445.0 212.0
1445.0 343.0
1446.0 177.0
1446.0 250.0
1446.0 342.0
