14.0 57.0
14.0 100.0
14.0 142.0
14.0 185.0
14.0 228.0
14.0 265.0
14.0 298.0
14.0 324.0
14.0 350.0
14.0 376.0
26.0 6.0
26.0 10.0
26.0 14.0
26.0 18.0
26.0 22.0
26.0 26.0
26.0 30.0
26.0 34.0
26.0 38.0
26.0 42.0
26.0 46.0
26.0 50.0
26.0 54.0
26.0 58.0
26.0 62.0
26.0 66.0
26.0 70.0
26.0 74.0
26.0 78.0
26.0 82.0
26.0 86.0
26.0 90.0
26.0 94.0
26.0 98.0
26.0 102.0
26.0 106.0
26.0 110.0
26.0 114.0
26.0 118.0
26.0 122.0
26.0 126.0
26.0 130.0
26.0 134.0
26.0 138.0
26.0 142.0
26.0 146.0
26.0 150.0
26.0 154.0
26.0 158.0
26.0 162.0
26.0 166.0
26.0 170.0
26.0 174.0
26.0 178.0
26.0 182.0
26.0 186.0
26.0 190.0
26.0 194.0
26.0 198.0
26.0 202.0
26.0 206.0
26.0 210.0
26.0 214.0
26.0 218.0
26.0 222.0
26.0 226.0
26.0 230.0
26.0 234.0
26.0 238.0
26.0 242.0
26.0 246.0
26.0 250.0
26.0 254.0
26.0 258.0
26.0 262.0
26.0 266.0
26.0 270.0
26.0 274.0
26.0 278.0
26.0 282.0
26.0 286.0
26.0 290.0
26.0 294.0
26.0 298.0
26.0 302.0
26.0 306.0
26.0 310.0
26.0 314.0
26.0 318.0
26.0 321.0
26.0 325.0
26.0 329.0
26.0 332.0
26.0 336.0
26.0 340.0
26.0 344.0
26.0 348.0
26.0 351.0
26.0 355.0
26.0 359.0
26.0 362.0
26.0 366.0
26.0 370.0
26.0 374.0
26.0 378.0
26.0 381.0
26.0 385.0
26.0 389.0
26.0 392.0
26.0 396.0
62.0 59.0
62.0 104.0
62.0 148.0
62.0 191.0
62.0 232.0
62.0 271.0
62.0 303.0
62.0 330.0
62.0 356.0
62.0 382.0
87.0 58.0
87.0 105.0
87.0 148.0
87.0 192.0
87.0 238.0
87.0 276.0
87.0 308.0
87.0 335.0
87.0 362.0
87.0 389.0
112.0 59.0
112.0 100.0
112.0 133.0
112.0 163.0
112.0 191.0
112.0 217.0
112.0 244.0
112.0 270.0
112.0 296.0
112.0 321.0
112.0 345.0
112.0 369.0
112.0 393.0
129.0 58.0
129.0 99.0
129.0 133.0
129.0 163.0
129.0 190.0
129.0 217.0
129.0 245.0
129.0 273.0
129.0 300.0
129.0 326.0
129.0 352.0
129.0 377.0
157.0 62.0
157.0 108.0
157.0 153.0
157.0 196.0
157.0 242.0
157.0 279.0
157.0 310.0
157.0 337.0
157.0 365.0
157.0 391.0
159.0 57.0
159.0 103.0
159.0 146.0
159.0 188.0
159.0 232.0
159.0 269.0
159.0 301.0
159.0 328.0
159.0 355.0
159.0 381.0
165.0 75.0
165.0 131.0
165.0 189.0
165.0 251.0
165.0 295.0
165.0 326.0
165.0 357.0
165.0 388.0
166.0 59.0
166.0 104.0
166.0 148.0
166.0 194.0
166.0 239.0
166.0 275.0
166.0 307.0
166.0 334.0
166.0 361.0
166.0 387.0
167.0 63.0
167.0 111.0
167.0 157.0
167.0 201.0
167.0 247.0
167.0 284.0
167.0 315.0
167.0 342.0
167.0 369.0
167.0 396.0
185.0 58.0
185.0 102.0
185.0 141.0
185.0 178.0
185.0 219.0
185.0 257.0
185.0 289.0
185.0 317.0
185.0 341.0
185.0 365.0
185.0 389.0
217.0 57.0
217.0 98.0
217.0 133.0
217.0 163.0
217.0 191.0
217.0 218.0
217.0 246.0
217.0 273.0
217.0 301.0
217.0 328.0
217.0 354.0
217.0 381.0
224.0 57.0
224.0 97.0
224.0 128.0
224.0 156.0
224.0 182.0
224.0 207.0
224.0 232.0
224.0 257.0
224.0 281.0
224.0 305.0
224.0 328.0
224.0 351.0
224.0 373.0
224.0 395.0
227.0 58.0
227.0 103.0
227.0 142.0
227.0 172.0
227.0 201.0
227.0 231.0
227.0 260.0
227.0 289.0
227.0 317.0
227.0 344.0
227.0 371.0
227.0 397.0
232.0 54.0
232.0 90.0
232.0 121.0
232.0 150.0
232.0 175.0
232.0 200.0
232.0 225.0
232.0 249.0
232.0 273.0
232.0 298.0
232.0 322.0
232.0 344.0
232.0 367.0
232.0 390.0
241.0 58.0
241.0 98.0
241.0 130.0
241.0 158.0
241.0 183.0
241.0 208.0
241.0 232.0
241.0 257.0
241.0 282.0
241.0 307.0
241.0 332.0
241.0 356.0
241.0 380.0
258.0 59.0
258.0 102.0
258.0 137.0
258.0 167.0
258.0 195.0
258.0 223.0
258.0 251.0
258.0 279.0
258.0 307.0
258.0 334.0
258.0 360.0
258.0 386.0
259.0 61.0
259.0 104.0
259.0 141.0
259.0 171.0
259.0 199.0
259.0 227.0
259.0 255.0
259.0 283.0
259.0 312.0
259.0 338.0
259.0 366.0
259.0 394.0
286.0 57.0
286.0 103.0
286.0 145.0
286.0 188.0
286.0 232.0
286.0 269.0
286.0 301.0
286.0 328.0
286.0 354.0
286.0 380.0
296.0 60.0
296.0 102.0
296.0 139.0
296.0 174.0
296.0 207.0
296.0 242.0
296.0 273.0
296.0 301.0
296.0 325.0
296.0 347.0
296.0 369.0
296.0 392.0
303.0 53.0
303.0 91.0
303.0 127.0
303.0 164.0
303.0 200.0
303.0 237.0
303.0 269.0
303.0 299.0
303.0 323.0
303.0 346.0
303.0 369.0
303.0 392.0
306.0 58.0
306.0 103.0
306.0 147.0
306.0 190.0
306.0 235.0
306.0 272.0
306.0 303.0
306.0 329.0
306.0 356.0
306.0 382.0
328.0 57.0
328.0 99.0
328.0 134.0
328.0 165.0
328.0 193.0
328.0 221.0
328.0 250.0
328.0 278.0
328.0 306.0
328.0 333.0
328.0 360.0
328.0 388.0
334.0 58.0
334.0 99.0
334.0 133.0
334.0 163.0
334.0 189.0
334.0 216.0
334.0 242.0
334.0 269.0
334.0 296.0
334.0 324.0
334.0 350.0
334.0 375.0
334.0 400.0
347.0 35.0
347.0 57.0
347.0 77.0
347.0 98.0
347.0 117.0
347.0 137.0
347.0 154.0
347.0 171.0
347.0 187.0
347.0 204.0
347.0 220.0
347.0 237.0
347.0 254.0
347.0 270.0
347.0 286.0
347.0 301.0
347.0 315.0
347.0 329.0
347.0 343.0
347.0 357.0
347.0 371.0
347.0 385.0
347.0 399.0
366.0 61.0
366.0 102.0
366.0 135.0
366.0 164.0
366.0 190.0
366.0 216.0
366.0 242.0
366.0 267.0
366.0 294.0
366.0 319.0
366.0 342.0
366.0 366.0
366.0 390.0
382.0 63.0
382.0 107.0
382.0 147.0
382.0 178.0
382.0 207.0
382.0 237.0
382.0 267.0
382.0 296.0
382.0 326.0
382.0 354.0
382.0 382.0
428.0 65.0
428.0 113.0
428.0 156.0
428.0 197.0
428.0 240.0
428.0 276.0
428.0 307.0
428.0 334.0
428.0 359.0
428.0 385.0
434.0 59.0
434.0 104.0
434.0 147.0
434.0 195.0
434.0 242.0
434.0 279.0
434.0 310.0
434.0 337.0
434.0 365.0
434.0 393.0
435.0 59.0
435.0 100.0
435.0 140.0
435.0 181.0
435.0 224.0
435.0 262.0
435.0 296.0
435.0 324.0
435.0 349.0
435.0 375.0
435.0 400.0
450.0 55.0
450.0 96.0
450.0 135.0
450.0 172.0
450.0 208.0
450.0 247.0
450.0 279.0
450.0 307.0
450.0 332.0
450.0 356.0
450.0 380.0
456.0 124.0
456.0 173.0
456.0 213.0
456.0 253.0
456.0 288.0
456.0 317.0
456.0 345.0
456.0 373.0
477.0 62.0
477.0 111.0
477.0 158.0
477.0 202.0
477.0 250.0
477.0 286.0
477.0 315.0
477.0 341.0
477.0 367.0
477.0 394.0
487.0 56.0
487.0 100.0
487.0 135.0
487.0 164.0
487.0 192.0
487.0 220.0
487.0 247.0
487.0 273.0
487.0 300.0
487.0 326.0
487.0 353.0
487.0 379.0
558.0 60.0
558.0 102.0
558.0 143.0
558.0 181.0
558.0 222.0
558.0 258.0
558.0 290.0
558.0 316.0
558.0 339.0
558.0 363.0
558.0 388.0
580.0 63.0
580.0 114.0
580.0 159.0
580.0 207.0
580.0 251.0
580.0 288.0
580.0 319.0
580.0 346.0
580.0 373.0
580.0 399.0
591.0 112.0
591.0 159.0
591.0 196.0
591.0 235.0
591.0 269.0
591.0 300.0
591.0 325.0
591.0 351.0
591.0 376.0
599.0 36.0
599.0 58.0
599.0 79.0
599.0 100.0
599.0 119.0
599.0 139.0
599.0 158.0
599.0 175.0
599.0 194.0
599.0 211.0
599.0 230.0
599.0 248.0
599.0 264.0
599.0 280.0
599.0 296.0
599.0 311.0
599.0 326.0
599.0 341.0
599.0 355.0
599.0 370.0
599.0 384.0
599.0 398.0
605.0 56.0
605.0 95.0
605.0 127.0
605.0 156.0
605.0 180.0
605.0 204.0
605.0 228.0
605.0 252.0
605.0 276.0
605.0 299.0
605.0 323.0
605.0 345.0
605.0 367.0
605.0 390.0
607.0 63.0
607.0 107.0
607.0 148.0
607.0 190.0
607.0 231.0
607.0 267.0
607.0 299.0
607.0 326.0
607.0 351.0
607.0 375.0
607.0 400.0
623.0 60.0
623.0 100.0
623.0 135.0
623.0 164.0
623.0 192.0
623.0 220.0
623.0 248.0
623.0 276.0
623.0 304.0
623.0 331.0
623.0 357.0
623.0 384.0
632.0 56.0
632.0 94.0
632.0 124.0
632.0 153.0
632.0 177.0
632.0 201.0
632.0 226.0
632.0 250.0
632.0 276.0
632.0 301.0
632.0 325.0
632.0 348.0
632.0 370.0
632.0 393.0
680.0 9.0
680.0 15.0
680.0 21.0
680.0 27.0
680.0 33.0
680.0 39.0
680.0 45.0
680.0 51.0
680.0 57.0
680.0 63.0
680.0 69.0
680.0 75.0
680.0 81.0
680.0 87.0
680.0 93.0
680.0 99.0
680.0 105.0
680.0 111.0
680.0 117.0
680.0 123.0
680.0 129.0
680.0 135.0
680.0 141.0
680.0 147.0
680.0 153.0
680.0 159.0
680.0 165.0
680.0 171.0
680.0 177.0
680.0 183.0
680.0 189.0
680.0 195.0
680.0 201.0
680.0 207.0
680.0 213.0
680.0 219.0
680.0 225.0
680.0 231.0
680.0 237.0
680.0 243.0
680.0 248.0
680.0 253.0
680.0 258.0
680.0 263.0
680.0 268.0
680.0 273.0
680.0 278.0
680.0 283.0
680.0 288.0
680.0 292.0
680.0 296.0
680.0 300.0
680.0 304.0
680.0 308.0
680.0 312.0
680.0 316.0
680.0 320.0
680.0 324.0
680.0 328.0
680.0 332.0
680.0 336.0
680.0 340.0
680.0 344.0
680.0 348.0
680.0 352.0
680.0 356.0
680.0 360.0
680.0 364.0
680.0 368.0
680.0 372.0
680.0 376.0
680.0 380.0
680.0 384.0
680.0 388.0
680.0 392.0
680.0 396.0
696.0 44.0
696.0 71.0
696.0 100.0
696.0 126.0
696.0 153.0
696.0 180.0
696.0 206.0
696.0 233.0
696.0 259.0
696.0 286.0
696.0 313.0
696.0 338.0
696.0 363.0
696.0 388.0
708.0 65.0
708.0 109.0
708.0 149.0
708.0 180.0
708.0 212.0
708.0 244.0
708.0 274.0
708.0 304.0
708.0 333.0
708.0 361.0
708.0 390.0
709.0 61.0
709.0 105.0
709.0 148.0
709.0 187.0
709.0 225.0
709.0 261.0
709.0 292.0
709.0 318.0
709.0 341.0
709.0 365.0
709.0 388.0
714.0 63.0
714.0 106.0
714.0 148.0
714.0 186.0
714.0 226.0
714.0 264.0
714.0 298.0
714.0 326.0
714.0 354.0
714.0 381.0
718.0 61.0
718.0 104.0
718.0 144.0
718.0 181.0
718.0 218.0
718.0 253.0
718.0 284.0
718.0 312.0
718.0 336.0
718.0 360.0
718.0 384.0
725.0 59.0
725.0 98.0
725.0 129.0
725.0 158.0
725.0 182.0
725.0 208.0
725.0 232.0
725.0 256.0
725.0 280.0
725.0 306.0
725.0 330.0
725.0 353.0
725.0 376.0
725.0 400.0
734.0 44.0
734.0 69.0
734.0 96.0
734.0 121.0
734.0 147.0
734.0 172.0
734.0 196.0
734.0 222.0
734.0 247.0
734.0 270.0
734.0 296.0
734.0 320.0
734.0 342.0
734.0 365.0
734.0 387.0
735.0 61.0
735.0 101.0
735.0 133.0
735.0 162.0
735.0 187.0
735.0 214.0
735.0 239.0
735.0 266.0
735.0 291.0
735.0 315.0
735.0 339.0
735.0 363.0
735.0 387.0
736.0 106.0
736.0 154.0
736.0 190.0
736.0 225.0
736.0 259.0
736.0 289.0
736.0 314.0
736.0 338.0
736.0 362.0
736.0 386.0
738.0 63.0
738.0 107.0
738.0 154.0
738.0 196.0
738.0 238.0
738.0 274.0
738.0 306.0
738.0 334.0
738.0 362.0
738.0 390.0
744.0 44.0
744.0 70.0
744.0 100.0
744.0 128.0
744.0 154.0
744.0 180.0
744.0 207.0
744.0 234.0
744.0 260.0
744.0 286.0
744.0 312.0
744.0 337.0
744.0 362.0
744.0 387.0
745.0 60.0
745.0 100.0
745.0 134.0
745.0 164.0
745.0 192.0
745.0 220.0
745.0 248.0
745.0 276.0
745.0 304.0
745.0 331.0
745.0 357.0
745.0 384.0
763.0 9.0
763.0 15.0
763.0 21.0
763.0 27.0
763.0 33.0
763.0 39.0
763.0 45.0
763.0 51.0
763.0 57.0
763.0 63.0
763.0 69.0
763.0 75.0
763.0 81.0
763.0 87.0
763.0 92.0
763.0 97.0
763.0 102.0
763.0 107.0
763.0 112.0
763.0 117.0
763.0 122.0
763.0 127.0
763.0 132.0
763.0 137.0
763.0 142.0
763.0 146.0
763.0 150.0
763.0 154.0
763.0 158.0
763.0 162.0
763.0 166.0
763.0 170.0
763.0 174.0
763.0 178.0
763.0 182.0
763.0 186.0
763.0 190.0
763.0 194.0
763.0 198.0
763.0 202.0
763.0 206.0
763.0 210.0
763.0 214.0
763.0 218.0
763.0 222.0
763.0 226.0
763.0 230.0
763.0 234.0
763.0 238.0
763.0 242.0
763.0 246.0
763.0 250.0
763.0 254.0
763.0 258.0
763.0 262.0
763.0 266.0
763.0 270.0
763.0 274.0
763.0 278.0
763.0 282.0
763.0 286.0
763.0 290.0
763.0 294.0
763.0 298.0
763.0 302.0
763.0 306.0
763.0 310.0
763.0 314.0
763.0 318.0
763.0 322.0
763.0 326.0
763.0 330.0
763.0 334.0
763.0 338.0
763.0 342.0
763.0 346.0
763.0 350.0
763.0 354.0
763.0 358.0
763.0 362.0
763.0 366.0
763.0 370.0
763.0 374.0
763.0 378.0
763.0 382.0
763.0 386.0
763.0 390.0
763.0 394.0
841.0 165.0
841.0 217.0
841.0 264.0
841.0 303.0
841.0 336.0
841.0 371.0
842.0 66.0
842.0 114.0
842.0 162.0
842.0 213.0
842.0 258.0
842.0 295.0
842.0 325.0
842.0 355.0
842.0 385.0
843.0 109.0
843.0 162.0
843.0 199.0
843.0 236.0
843.0 269.0
843.0 300.0
843.0 327.0
843.0 353.0
843.0 379.0
852.0 66.0
852.0 110.0
852.0 154.0
852.0 199.0
852.0 242.0
852.0 278.0
852.0 308.0
852.0 335.0
852.0 362.0
852.0 388.0
857.0 58.0
857.0 95.0
857.0 130.0
857.0 165.0
857.0 201.0
857.0 237.0
857.0 269.0
857.0 298.0
857.0 322.0
857.0 345.0
857.0 369.0
857.0 393.0
860.0 102.0
860.0 146.0
860.0 178.0
860.0 212.0
860.0 248.0
860.0 278.0
860.0 305.0
860.0 328.0
860.0 350.0
860.0 373.0
860.0 397.0
861.0 141.0
861.0 183.0
861.0 224.0
861.0 262.0
861.0 296.0
861.0 323.0
861.0 350.0
861.0 378.0
866.0 38.0
866.0 60.0
866.0 81.0
866.0 102.0
866.0 121.0
866.0 141.0
866.0 159.0
866.0 177.0
866.0 194.0
866.0 211.0
866.0 228.0
866.0 245.0
866.0 261.0
866.0 277.0
866.0 293.0
866.0 308.0
866.0 323.0
866.0 337.0
866.0 352.0
866.0 366.0
866.0 381.0
866.0 395.0
880.0 64.0
880.0 103.0
880.0 135.0
880.0 164.0
880.0 189.0
880.0 214.0
880.0 239.0
880.0 263.0
880.0 287.0
880.0 312.0
880.0 337.0
880.0 362.0
880.0 387.0
941.0 62.0
941.0 111.0
941.0 162.0
941.0 212.0
941.0 257.0
941.0 295.0
941.0 325.0
941.0 355.0
941.0 384.0
949.0 62.0
949.0 103.0
949.0 142.0
949.0 178.0
949.0 214.0
949.0 250.0
949.0 282.0
949.0 309.0
949.0 333.0
949.0 358.0
949.0 382.0
950.0 61.0
950.0 117.0
950.0 169.0
950.0 218.0
950.0 261.0
950.0 297.0
950.0 327.0
950.0 357.0
950.0 386.0
959.0 62.0
959.0 106.0
959.0 153.0
959.0 197.0
959.0 242.0
959.0 279.0
959.0 310.0
959.0 338.0
959.0 366.0
959.0 394.0
973.0 57.0
973.0 100.0
973.0 140.0
973.0 181.0
973.0 223.0
973.0 262.0
973.0 296.0
973.0 324.0
973.0 350.0
973.0 376.0
991.0 62.0
991.0 105.0
991.0 144.0
991.0 184.0
991.0 225.0
991.0 261.0
991.0 293.0
991.0 319.0
991.0 345.0
991.0 372.0
991.0 398.0
1001.0 64.0
1001.0 107.0
1001.0 144.0
1001.0 174.0
1001.0 203.0
1001.0 232.0
1001.0 261.0
1001.0 291.0
1001.0 320.0
1001.0 350.0
1001.0 380.0
1012.0 60.0
1012.0 100.0
1012.0 135.0
1012.0 163.0
1012.0 189.0
1012.0 216.0
1012.0 242.0
1012.0 268.0
1012.0 295.0
1012.0 321.0
1012.0 348.0
1012.0 374.0
1012.0 400.0
1016.0 65.0
1016.0 108.0
1016.0 145.0
1016.0 174.0
1016.0 202.0
1016.0 231.0
1016.0 260.0
1016.0 289.0
1016.0 318.0
1016.0 346.0
1016.0 374.0
1038.0 62.0
1038.0 102.0
1038.0 136.0
1038.0 165.0
1038.0 193.0
1038.0 219.0
1038.0 246.0
1038.0 274.0
1038.0 301.0
1038.0 328.0
1038.0 354.0
1038.0 381.0
1068.0 62.0
1068.0 108.0
1068.0 151.0
1068.0 194.0
1068.0 235.0
1068.0 271.0
1068.0 303.0
1068.0 331.0
1068.0 359.0
1068.0 387.0
1075.0 62.0
1075.0 110.0
1075.0 155.0
1075.0 199.0
1075.0 243.0
1075.0 279.0
1075.0 310.0
1075.0 338.0
1075.0 366.0
1075.0 394.0
1087.0 66.0
1087.0 114.0
1087.0 161.0
1087.0 205.0
1087.0 249.0
1087.0 285.0
1087.0 314.0
1087.0 342.0
1087.0 369.0
1087.0 397.0
1088.0 66.0
1088.0 114.0
1088.0 162.0
1088.0 210.0
1088.0 253.0
1088.0 291.0
1088.0 321.0
1088.0 350.0
1088.0 379.0
1105.0 57.0
1105.0 93.0
1105.0 128.0
1105.0 164.0
1105.0 200.0
1105.0 236.0
1105.0 266.0
1105.0 294.0
1105.0 318.0
1105.0 341.0
1105.0 365.0
1105.0 389.0
1114.0 63.0
1114.0 106.0
1114.0 147.0
1114.0 188.0
1114.0 227.0
1114.0 260.0
1114.0 292.0
1114.0 317.0
1114.0 342.0
1114.0 368.0
1114.0 394.0
1118.0 64.0
1118.0 110.0
1118.0 152.0
1118.0 196.0
1118.0 237.0
1118.0 273.0
1118.0 305.0
1118.0 333.0
1118.0 361.0
1118.0 389.0
1135.0 67.0
1135.0 118.0
1135.0 171.0
1135.0 225.0
1135.0 269.0
1135.0 306.0
1135.0 338.0
1135.0 368.0
1135.0 399.0
1156.0 60.0
1156.0 101.0
1156.0 136.0
1156.0 166.0
1156.0 193.0
1156.0 221.0
1156.0 249.0
1156.0 276.0
1156.0 304.0
1156.0 332.0
1156.0 360.0
1156.0 388.0
1165.0 61.0
1165.0 101.0
1165.0 136.0
1165.0 166.0
1165.0 194.0
1165.0 223.0
1165.0 251.0
1165.0 278.0
1165.0 307.0
1165.0 335.0
1165.0 363.0
1165.0 391.0
1172.0 57.0
1172.0 97.0
1172.0 131.0
1172.0 162.0
1172.0 190.0
1172.0 218.0
1172.0 246.0
1172.0 274.0
1172.0 302.0
1172.0 330.0
1172.0 358.0
1172.0 386.0
1204.0 62.0
1204.0 109.0
1204.0 153.0
1204.0 197.0
1204.0 242.0
1204.0 278.0
1204.0 309.0
1204.0 337.0
1204.0 365.0
1204.0 393.0
1222.0 60.0
1222.0 104.0
1222.0 144.0
1222.0 184.0
1222.0 225.0
1222.0 262.0
1222.0 294.0
1222.0 320.0
1222.0 346.0
1222.0 371.0
1222.0 396.0
1226.0 57.0
1226.0 97.0
1226.0 135.0
1226.0 172.0
1226.0 208.0
1226.0 245.0
1226.0 276.0
1226.0 304.0
1226.0 328.0
1226.0 352.0
1226.0 376.0
1226.0 400.0
1251.0 59.0
1251.0 102.0
1251.0 135.0
1251.0 164.0
1251.0 191.0
1251.0 218.0
1251.0 244.0
1251.0 270.0
1251.0 296.0
1251.0 323.0
1251.0 350.0
1251.0 377.0
1253.0 63.0
1253.0 107.0
1253.0 144.0
1253.0 175.0
1253.0 205.0
1253.0 235.0
1253.0 264.0
1253.0 295.0
1253.0 325.0
1253.0 355.0
1253.0 385.0
1254.0 60.0
1254.0 105.0
1254.0 147.0
1254.0 191.0
1254.0 232.0
1254.0 269.0
1254.0 302.0
1254.0 330.0
1254.0 358.0
1254.0 386.0
1337.0 59.0
1337.0 103.0
1337.0 147.0
1337.0 189.0
1337.0 231.0
1337.0 268.0
1337.0 300.0
1337.0 327.0
1337.0 355.0
1337.0 383.0
1340.0 62.0
1340.0 107.0
1340.0 152.0
1340.0 195.0
1340.0 239.0
1340.0 275.0
1340.0 306.0
1340.0 333.0
1340.0 360.0
1340.0 387.0
1345.0 59.0
1345.0 106.0
1345.0 154.0
1345.0 202.0
1345.0 246.0
1345.0 284.0
1345.0 314.0
1345.0 342.0
1345.0 370.0
1345.0 398.0
1390.0 60.0
1390.0 103.0
1390.0 139.0
1390.0 168.0
1390.0 196.0
1390.0 224.0
1390.0 251.0
1390.0 278.0
1390.0 304.0
1390.0 332.0
1390.0 360.0
1390.0 388.0
1404.0 63.0
1404.0 105.0
1404.0 141.0
1404.0 171.0
1404.0 200.0
1404.0 229.0
1404.0 257.0
1404.0 285.0
1404.0 313.0
1404.0 341.0
1404.0 369.0
1404.0 397.0
1417.0 69.0
1417.0 124.0
1417.0 180.0
1417.0 237.0
1417.0 280.0
1417.0 314.0
1417.0 346.0
1417.0 378.0
1418.0 64.0
1418.0 112.0
1418.0 156.0
1418.0 201.0
1418.0 249.0
1418.0 285.0
1418.0 316.0
1418.0 344.0
1418.0 373.0
1423.0 59.0
1423.0 106.0
1423.0 153.0
1423.0 201.0
1423.0 245.0
1423.0 281.0
1423.0 311.0
1423.0 339.0
1423.0 367.0
1423.0 396.0
1442.0 7.0
1442.0 12.0
1442.0 16.0
1442.0 20.0
1442.0 24.0
1442.0 28.0
1442.0 32.0
1442.0 36.0
1442.0 40.0
1442.0 44.0
1442.0 48.0
1442.0 52.0
1442.0 56.0
1442.0 60.0
1442.0 64.0
1442.0 68.0
1442.0 72.0
1442.0 76.0
1442.0 80.0
1442.0 84.0
1442.0 88.0
1442.0 92.0
1442.0 96.0
1442.0 100.0
1442.0 104.0
1442.0 108.0
1442.0 112.0
1442.0 116.0
1442.0 120.0
1442.0 124.0
1442.0 128.0
1442.0 132.0
1442.0 136.0
1442.0 140.0
1442.0 144.0
1442.0 148.0
1442.0 152.0
1442.0 156.0
1442.0 160.0
1442.0 164.0
1442.0 168.0
1442.0 172.0
1442.0 176.0
1442.0 180.0
1442.0 184.0
1442.0 188.0
1442.0 192.0
1442.0 196.0
1442.0 200.0
1442.0 204.0
1442.0 208.0
1442.0 212.0
1442.0 216.0
1442.0 220.0
1442.0 224.0
1442.0 228.0
1442.0 232.0
1442.0 236.0
1442.0 240.0
1442.0 244.0
1442.0 248.0
1442.0 252.0
1442.0 256.0
1442.0 260.0
1442.0 264.0
1442.0 268.0
1442.0 272.0
1442.0 276.0
1442.0 280.0
1442.0 284.0
1442.0 288.0
1442.0 292.0
1442.0 296.0
1442.0 300.0
1442.0 304.0
1442.0 308.0
1442.0 312.0
1442.0 316.0
1442.0 320.0
1442.0 324.0
1442.0 328.0
1442.0 332.0
1442.0 336.0
1442.0 340.0
1442.0 344.0
1442.0 348.0
1442.0 352.0
1442.0 356.0
1442.0 360.0
1442.0 364.0
1442.0 368.0
1442.0 372.0
1442.0 376.0
1442.0 380.0
1442.0 384.0
1442.0 388.0
1442.0 392.0
1442.0 396.0
