14.0 42.0
14.0 70.0
14.0 97.0
14.0 124.0
14.0 151.0
14.0 178.0
14.0 204.0
14.0 232.0
14.0 263.0
14.0 297.0
14.0 336.0
14.0 379.0
26.0 6.0
26.0 10.0
26.0 14.0
26.0 18.0
26.0 22.0
26.0 26.0
26.0 30.0
26.0 34.0
26.0 38.0
26.0 42.0
26.0 46.0
26.0 50.0
26.0 54.0
26.0 58.0
26.0 62.0
26.0 66.0
26.0 70.0
26.0 74.0
26.0 78.0
26.0 82.0
26.0 86.0
26.0 90.0
26.0 94.0
26.0 98.0
26.0 102.0
26.0 106.0
26.0 110.0
26.0 114.0
26.0 118.0
26.0 122.0
26.0 126.0
26.0 130.0
26.0 134.0
26.0 138.0
26.0 142.0
26.0 146.0
26.0 150.0
26.0 154.0
26.0 158.0
26.0 162.0
26.0 166.0
26.0 170.0
26.0 174.0
26.0 178.0
26.0 182.0
26.0 186.0
26.0 190.0
26.0 194.0
26.0 198.0
26.0 202.0
26.0 206.0
26.0 210.0
26.0 214.0
26.0 219.0
26.0 223.0
26.0 229.0
26.0 234.0
26.0 239.0
26.0 244.0
26.0 249.0
26.0 254.0
26.0 259.0
26.0 264.0
26.0 269.0
26.0 274.0
26.0 279.0
26.0 284.0
26.0 289.0
26.0 295.0
26.0 301.0
26.0 307.0
26.0 313.0
26.0 319.0
26.0 325.0
26.0 331.0
26.0 337.0
26.0 343.0
26.0 349.0
26.0 355.0
26.0 361.0
26.0 367.0
26.0 373.0
26.0 379.0
26.0 385.0
26.0 391.0
62.0 42.0
62.0 70.0
62.0 97.0
62.0 124.0
62.0 151.0
62.0 178.0
62.0 204.0
62.0 231.0
62.0 263.0
62.0 295.0
62.0 337.0
62.0 378.0
87.0 42.0
87.0 71.0
87.0 101.0
87.0 131.0
87.0 161.0
87.0 191.0
87.0 220.0
87.0 254.0
87.0 287.0
87.0 331.0
87.0 376.0
112.0 40.0
112.0 66.0
112.0 92.0
112.0 116.0
112.0 141.0
112.0 167.0
112.0 192.0
112.0 214.0
112.0 236.0
112.0 258.0
112.0 280.0
112.0 304.0
112.0 337.0
112.0 374.0
129.0 41.0
129.0 69.0
129.0 97.0
129.0 122.0
129.0 148.0
129.0 175.0
129.0 201.0
129.0 224.0
129.0 250.0
129.0 275.0
129.0 301.0
129.0 337.0
129.0 378.0
139.0 276.0
157.0 44.0
157.0 73.0
157.0 101.0
157.0 129.0
157.0 157.0
157.0 185.0
157.0 211.0
157.0 241.0
157.0 272.0
157.0 308.0
157.0 350.0
157.0 397.0
159.0 41.0
159.0 69.0
159.0 97.0
159.0 125.0
159.0 153.0
159.0 181.0
159.0 207.0
159.0 236.0
159.0 267.0
159.0 301.0
159.0 345.0
159.0 389.0
165.0 44.0
165.0 78.0
165.0 111.0
165.0 145.0
165.0 177.0
165.0 207.0
165.0 245.0
165.0 286.0
165.0 343.0
166.0 42.0
166.0 70.0
166.0 98.0
166.0 126.0
166.0 154.0
166.0 182.0
166.0 208.0
166.0 238.0
166.0 271.0
166.0 307.0
166.0 350.0
166.0 396.0
167.0 44.0
167.0 73.0
167.0 103.0
167.0 132.0
167.0 161.0
167.0 189.0
167.0 216.0
167.0 249.0
167.0 282.0
167.0 321.0
167.0 366.0
185.0 42.0
185.0 69.0
185.0 97.0
185.0 123.0
185.0 149.0
185.0 175.0
185.0 201.0
185.0 226.0
185.0 257.0
185.0 287.0
185.0 323.0
185.0 364.0
217.0 39.0
217.0 66.0
217.0 93.0
217.0 118.0
217.0 144.0
217.0 170.0
217.0 196.0
217.0 219.0
217.0 243.0
217.0 267.0
217.0 291.0
217.0 318.0
217.0 355.0
217.0 394.0
224.0 40.0
224.0 65.0
224.0 91.0
224.0 114.0
224.0 137.0
224.0 160.0
224.0 184.0
224.0 207.0
224.0 228.0
224.0 251.0
224.0 273.0
224.0 294.0
224.0 322.0
224.0 354.0
224.0 389.0
227.0 41.0
227.0 69.0
227.0 97.0
227.0 123.0
227.0 149.0
227.0 175.0
227.0 201.0
227.0 224.0
227.0 249.0
227.0 273.0
227.0 299.0
227.0 335.0
227.0 377.0
232.0 40.0
232.0 65.0
232.0 90.0
232.0 113.0
232.0 137.0
232.0 161.0
232.0 185.0
232.0 208.0
232.0 229.0
232.0 251.0
232.0 273.0
232.0 293.0
232.0 322.0
232.0 355.0
232.0 390.0
235.0 249.0
241.0 40.0
241.0 65.0
241.0 90.0
241.0 114.0
241.0 138.0
241.0 162.0
241.0 186.0
241.0 209.0
241.0 229.0
241.0 251.0
241.0 273.0
241.0 294.0
241.0 322.0
241.0 355.0
241.0 389.0
258.0 43.0
258.0 71.0
258.0 99.0
258.0 125.0
258.0 151.0
258.0 177.0
258.0 203.0
258.0 225.0
258.0 249.0
258.0 273.0
258.0 297.0
258.0 330.0
258.0 366.0
259.0 41.0
259.0 70.0
259.0 99.0
259.0 126.0
259.0 152.0
259.0 179.0
259.0 206.0
259.0 229.0
259.0 254.0
259.0 279.0
259.0 306.0
259.0 343.0
259.0 385.0
286.0 42.0
286.0 71.0
286.0 98.0
286.0 125.0
286.0 152.0
286.0 180.0
286.0 206.0
286.0 232.0
286.0 263.0
286.0 295.0
286.0 337.0
286.0 381.0
296.0 43.0
296.0 68.0
296.0 95.0
296.0 119.0
296.0 144.0
296.0 168.0
296.0 192.0
296.0 215.0
296.0 240.0
296.0 267.0
296.0 295.0
296.0 330.0
296.0 366.0
303.0 41.0
303.0 66.0
303.0 91.0
303.0 115.0
303.0 140.0
303.0 164.0
303.0 188.0
303.0 211.0
303.0 236.0
303.0 262.0
303.0 290.0
303.0 323.0
303.0 360.0
303.0 396.0
306.0 42.0
306.0 70.0
306.0 98.0
306.0 126.0
306.0 154.0
306.0 183.0
306.0 210.0
306.0 240.0
306.0 273.0
306.0 309.0
306.0 350.0
306.0 393.0
328.0 40.0
328.0 69.0
328.0 97.0
328.0 124.0
328.0 151.0
328.0 178.0
328.0 205.0
328.0 229.0
328.0 254.0
328.0 280.0
328.0 307.0
328.0 348.0
328.0 390.0
334.0 41.0
334.0 68.0
334.0 95.0
334.0 120.0
334.0 145.0
334.0 169.0
334.0 194.0
334.0 217.0
334.0 240.0
334.0 263.0
334.0 287.0
334.0 312.0
334.0 345.0
334.0 382.0
347.0 28.0
347.0 43.0
347.0 56.0
347.0 71.0
347.0 85.0
347.0 100.0
347.0 114.0
347.0 128.0
347.0 142.0
347.0 156.0
347.0 170.0
347.0 184.0
347.0 197.0
347.0 210.0
347.0 223.0
347.0 236.0
347.0 249.0
347.0 262.0
347.0 275.0
347.0 288.0
347.0 301.0
347.0 317.0
347.0 333.0
347.0 350.0
347.0 366.0
347.0 383.0
366.0 42.0
366.0 67.0
366.0 94.0
366.0 118.0
366.0 143.0
366.0 167.0
366.0 190.0
366.0 213.0
366.0 234.0
366.0 255.0
366.0 277.0
366.0 301.0
366.0 331.0
366.0 365.0
368.0 253.0
377.0 235.0
377.0 298.0
382.0 43.0
382.0 73.0
382.0 103.0
382.0 131.0
382.0 159.0
382.0 187.0
382.0 212.0
382.0 236.0
382.0 263.0
382.0 289.0
382.0 324.0
382.0 366.0
383.0 232.0
383.0 286.0
428.0 44.0
428.0 72.0
428.0 100.0
428.0 128.0
428.0 156.0
428.0 184.0
428.0 209.0
428.0 236.0
428.0 266.0
428.0 297.0
428.0 337.0
428.0 379.0
434.0 43.0
434.0 71.0
434.0 101.0
434.0 130.0
434.0 160.0
434.0 189.0
434.0 216.0
434.0 250.0
434.0 286.0
434.0 330.0
434.0 374.0
435.0 43.0
435.0 70.0
435.0 97.0
435.0 124.0
435.0 152.0
435.0 180.0
435.0 206.0
435.0 233.0
435.0 261.0
435.0 290.0
435.0 327.0
435.0 366.0
449.0 241.0
449.0 296.0
450.0 40.0
450.0 67.0
450.0 93.0
450.0 119.0
450.0 145.0
450.0 171.0
450.0 195.0
450.0 220.0
450.0 250.0
450.0 280.0
450.0 318.0
450.0 357.0
450.0 396.0
456.0 44.0
456.0 72.0
456.0 101.0
456.0 126.0
456.0 152.0
456.0 178.0
456.0 203.0
456.0 224.0
456.0 244.0
456.0 263.0
456.0 284.0
456.0 304.0
456.0 327.0
456.0 354.0
456.0 380.0
466.0 231.0
466.0 288.0
468.0 243.0
468.0 305.0
474.0 244.0
474.0 304.0
475.0 230.0
475.0 291.0
477.0 43.0
477.0 71.0
477.0 99.0
477.0 126.0
477.0 154.0
477.0 183.0
477.0 209.0
477.0 239.0
477.0 269.0
477.0 303.0
477.0 353.0
477.0 395.0
478.0 262.0
487.0 41.0
487.0 68.0
487.0 97.0
487.0 123.0
487.0 149.0
487.0 175.0
487.0 201.0
487.0 224.0
487.0 249.0
487.0 274.0
487.0 299.0
487.0 334.0
487.0 373.0
488.0 302.0
493.0 256.0
496.0 276.0
513.0 282.0
558.0 43.0
558.0 69.0
558.0 96.0
558.0 122.0
558.0 148.0
558.0 173.0
558.0 199.0
558.0 223.0
558.0 253.0
558.0 281.0
558.0 319.0
558.0 361.0
580.0 43.0
580.0 72.0
580.0 101.0
580.0 131.0
580.0 163.0
580.0 192.0
580.0 220.0
580.0 254.0
580.0 285.0
580.0 330.0
580.0 380.0
581.0 260.0
589.0 276.0
591.0 41.0
591.0 66.0
591.0 93.0
591.0 117.0
591.0 141.0
591.0 166.0
591.0 189.0
591.0 211.0
591.0 230.0
591.0 249.0
591.0 267.0
591.0 286.0
591.0 306.0
591.0 329.0
591.0 354.0
591.0 378.0
598.0 291.0
599.0 29.0
599.0 45.0
599.0 60.0
599.0 75.0
599.0 90.0
599.0 105.0
599.0 119.0
599.0 133.0
599.0 148.0
599.0 162.0
599.0 177.0
599.0 192.0
599.0 206.0
599.0 219.0
599.0 232.0
599.0 246.0
599.0 260.0
599.0 274.0
599.0 288.0
599.0 302.0
599.0 318.0
599.0 335.0
599.0 352.0
599.0 368.0
599.0 385.0
601.0 252.0
605.0 40.0
605.0 64.0
605.0 88.0
605.0 110.0
605.0 133.0
605.0 155.0
605.0 179.0
605.0 201.0
605.0 221.0
605.0 241.0
605.0 264.0
605.0 285.0
605.0 307.0
605.0 336.0
605.0 366.0
607.0 43.0
607.0 70.0
607.0 97.0
607.0 123.0
607.0 149.0
607.0 175.0
607.0 200.0
607.0 225.0
607.0 254.0
607.0 283.0
607.0 314.0
607.0 351.0
607.0 388.0
612.0 240.0
612.0 304.0
613.0 255.0
623.0 41.0
623.0 68.0
623.0 96.0
623.0 121.0
623.0 146.0
623.0 172.0
623.0 198.0
623.0 220.0
623.0 245.0
623.0 268.0
623.0 292.0
623.0 325.0
623.0 362.0
625.0 242.0
631.0 257.0
632.0 40.0
632.0 65.0
632.0 90.0
632.0 113.0
632.0 137.0
632.0 160.0
632.0 184.0
632.0 206.0
632.0 226.0
632.0 247.0
632.0 268.0
632.0 290.0
632.0 315.0
632.0 346.0
632.0 379.0
634.0 275.0
641.0 255.0
680.0 7.0
680.0 12.0
680.0 16.0
680.0 20.0
680.0 24.0
680.0 28.0
680.0 32.0
680.0 36.0
680.0 40.0
680.0 44.0
680.0 48.0
680.0 52.0
680.0 56.0
680.0 60.0
680.0 64.0
680.0 68.0
680.0 72.0
680.0 76.0
680.0 80.0
680.0 84.0
680.0 88.0
680.0 92.0
680.0 96.0
680.0 100.0
680.0 104.0
680.0 108.0
680.0 112.0
680.0 116.0
680.0 120.0
680.0 124.0
680.0 128.0
680.0 132.0
680.0 136.0
680.0 140.0
680.0 144.0
680.0 148.0
680.0 152.0
680.0 156.0
680.0 160.0
680.0 164.0
680.0 168.0
680.0 172.0
680.0 176.0
680.0 180.0
680.0 184.0
680.0 187.0
680.0 191.0
680.0 195.0
680.0 198.0
680.0 202.0
680.0 206.0
680.0 210.0
680.0 214.0
680.0 217.0
680.0 221.0
680.0 225.0
680.0 228.0
680.0 232.0
680.0 236.0
680.0 240.0
680.0 244.0
680.0 247.0
680.0 251.0
680.0 255.0
680.0 258.0
680.0 262.0
680.0 266.0
680.0 270.0
680.0 274.0
680.0 277.0
680.0 281.0
680.0 285.0
680.0 289.0
680.0 293.0
680.0 297.0
680.0 301.0
680.0 305.0
680.0 309.0
680.0 313.0
680.0 317.0
680.0 321.0
680.0 325.0
680.0 329.0
680.0 333.0
680.0 337.0
680.0 341.0
680.0 345.0
680.0 349.0
680.0 353.0
680.0 357.0
680.0 361.0
680.0 365.0
680.0 369.0
680.0 373.0
680.0 377.0
680.0 381.0
680.0 385.0
680.0 389.0
680.0 393.0
680.0 398.0
696.0 57.0
696.0 100.0
696.0 142.0
696.0 184.0
696.0 226.0
696.0 286.0
696.0 349.0
708.0 44.0
708.0 74.0
708.0 104.0
708.0 134.0
708.0 164.0
708.0 194.0
708.0 220.0
708.0 246.0
708.0 274.0
708.0 301.0
708.0 341.0
708.0 391.0
709.0 44.0
709.0 69.0
709.0 96.0
709.0 121.0
709.0 145.0
709.0 171.0
709.0 195.0
709.0 220.0
709.0 250.0
709.0 280.0
709.0 313.0
709.0 349.0
709.0 386.0
714.0 58.0
714.0 99.0
714.0 141.0
714.0 179.0
714.0 216.0
714.0 251.0
714.0 284.0
714.0 317.0
714.0 348.0
714.0 380.0
718.0 42.0
718.0 68.0
718.0 93.0
718.0 118.0
718.0 143.0
718.0 168.0
718.0 192.0
718.0 216.0
718.0 245.0
718.0 274.0
718.0 305.0
718.0 343.0
718.0 381.0
725.0 56.0
725.0 93.0
725.0 126.0
725.0 159.0
725.0 191.0
725.0 220.0
725.0 244.0
725.0 269.0
725.0 292.0
725.0 315.0
725.0 343.0
725.0 370.0
725.0 399.0
726.0 262.0
734.0 53.0
734.0 88.0
734.0 124.0
734.0 159.0
734.0 192.0
734.0 227.0
734.0 271.0
734.0 319.0
734.0 368.0
735.0 51.0
735.0 87.0
735.0 120.0
735.0 153.0
735.0 184.0
735.0 213.0
735.0 237.0
735.0 261.0
735.0 286.0
735.0 309.0
735.0 335.0
735.0 364.0
735.0 394.0
736.0 42.0
736.0 67.0
736.0 93.0
736.0 116.0
736.0 139.0
736.0 163.0
736.0 187.0
736.0 208.0
736.0 227.0
736.0 246.0
736.0 265.0
736.0 284.0
736.0 303.0
736.0 327.0
736.0 352.0
736.0 375.0
738.0 58.0
738.0 102.0
738.0 142.0
738.0 183.0
738.0 221.0
738.0 257.0
738.0 295.0
738.0 331.0
738.0 367.0
743.0 271.0
744.0 60.0
744.0 100.0
744.0 141.0
744.0 180.0
744.0 220.0
744.0 270.0
744.0 333.0
744.0 393.0
745.0 41.0
745.0 68.0
745.0 96.0
745.0 122.0
745.0 148.0
745.0 174.0
745.0 200.0
745.0 222.0
745.0 246.0
745.0 268.0
745.0 292.0
745.0 325.0
745.0 362.0
751.0 278.0
754.0 261.0
762.0 225.0
762.0 273.0
763.0 6.0
763.0 10.0
763.0 14.0
763.0 18.0
763.0 22.0
763.0 26.0
763.0 30.0
763.0 34.0
763.0 38.0
763.0 42.0
763.0 46.0
763.0 50.0
763.0 54.0
763.0 58.0
763.0 62.0
763.0 66.0
763.0 70.0
763.0 74.0
763.0 78.0
763.0 82.0
763.0 86.0
763.0 90.0
763.0 94.0
763.0 98.0
763.0 101.0
763.0 105.0
763.0 109.0
763.0 112.0
763.0 116.0
763.0 120.0
763.0 124.0
763.0 128.0
763.0 131.0
763.0 135.0
763.0 139.0
763.0 142.0
763.0 146.0
763.0 150.0
763.0 154.0
763.0 158.0
763.0 161.0
763.0 165.0
763.0 169.0
763.0 172.0
763.0 176.0
763.0 180.0
763.0 184.0
763.0 188.0
763.0 191.0
763.0 195.0
763.0 198.0
763.0 202.0
763.0 205.0
763.0 208.0
763.0 211.0
763.0 214.0
763.0 217.0
763.0 220.0
763.0 223.0
763.0 226.0
763.0 229.0
763.0 232.0
763.0 235.0
763.0 238.0
763.0 241.0
763.0 244.0
763.0 247.0
763.0 250.0
763.0 253.0
763.0 256.0
763.0 259.0
763.0 262.0
763.0 265.0
763.0 268.0
763.0 271.0
763.0 274.0
763.0 277.0
763.0 280.0
763.0 283.0
763.0 286.0
763.0 289.0
763.0 292.0
763.0 295.0
763.0 298.0
763.0 301.0
763.0 304.0
763.0 308.0
763.0 312.0
763.0 316.0
763.0 319.0
763.0 323.0
763.0 327.0
763.0 330.0
763.0 334.0
763.0 338.0
763.0 342.0
763.0 346.0
763.0 349.0
763.0 353.0
763.0 357.0
763.0 360.0
763.0 364.0
763.0 368.0
763.0 372.0
763.0 376.0
763.0 380.0
763.0 384.0
763.0 388.0
763.0 392.0
763.0 396.0
841.0 44.0
841.0 76.0
841.0 107.0
841.0 137.0
841.0 167.0
841.0 197.0
841.0 220.0
841.0 243.0
841.0 263.0
841.0 286.0
841.0 309.0
841.0 336.0
841.0 365.0
841.0 396.0
842.0 59.0
842.0 104.0
842.0 153.0
842.0 195.0
842.0 236.0
842.0 273.0
842.0 316.0
842.0 356.0
842.0 393.0
843.0 44.0
843.0 71.0
843.0 99.0
843.0 123.0
843.0 148.0
843.0 172.0
843.0 195.0
843.0 216.0
843.0 235.0
843.0 254.0
843.0 273.0
843.0 293.0
843.0 313.0
843.0 337.0
843.0 362.0
843.0 388.0
852.0 57.0
852.0 100.0
852.0 141.0
852.0 180.0
852.0 218.0
852.0 255.0
852.0 286.0
852.0 318.0
852.0 350.0
852.0 383.0
857.0 61.0
857.0 100.0
857.0 138.0
857.0 176.0
857.0 207.0
857.0 237.0
857.0 268.0
857.0 301.0
857.0 331.0
857.0 359.0
857.0 391.0
860.0 41.0
860.0 65.0
860.0 90.0
860.0 113.0
860.0 135.0
860.0 158.0
860.0 180.0
860.0 202.0
860.0 221.0
860.0 239.0
860.0 257.0
860.0 275.0
860.0 293.0
860.0 312.0
860.0 334.0
860.0 358.0
860.0 381.0
861.0 43.0
861.0 71.0
861.0 98.0
861.0 124.0
861.0 150.0
861.0 176.0
861.0 201.0
861.0 222.0
861.0 242.0
861.0 261.0
861.0 281.0
861.0 302.0
861.0 327.0
861.0 354.0
861.0 380.0
866.0 32.0
866.0 50.0
866.0 67.0
866.0 84.0
866.0 101.0
866.0 117.0
866.0 134.0
866.0 151.0
866.0 167.0
866.0 183.0
866.0 199.0
866.0 214.0
866.0 228.0
866.0 242.0
866.0 256.0
866.0 270.0
866.0 284.0
866.0 298.0
866.0 313.0
866.0 328.0
866.0 344.0
866.0 359.0
866.0 375.0
866.0 391.0
870.0 244.0
870.0 307.0
880.0 57.0
880.0 94.0
880.0 128.0
880.0 160.0
880.0 194.0
880.0 221.0
880.0 245.0
880.0 271.0
880.0 296.0
880.0 322.0
880.0 350.0
880.0 379.0
881.0 261.0
883.0 268.0
894.0 269.0
941.0 59.0
941.0 107.0
941.0 160.0
941.0 202.0
941.0 249.0
941.0 292.0
941.0 332.0
941.0 372.0
949.0 56.0
949.0 93.0
949.0 129.0
949.0 165.0
949.0 199.0
949.0 232.0
949.0 266.0
949.0 301.0
949.0 332.0
949.0 362.0
949.0 393.0
950.0 59.0
950.0 111.0
950.0 159.0
950.0 203.0
950.0 248.0
950.0 290.0
950.0 329.0
950.0 366.0
959.0 57.0
959.0 101.0
959.0 146.0
959.0 189.0
959.0 227.0
959.0 264.0
959.0 303.0
959.0 338.0
959.0 375.0
973.0 56.0
973.0 97.0
973.0 136.0
973.0 176.0
973.0 211.0
973.0 248.0
973.0 283.0
973.0 317.0
973.0 350.0
973.0 382.0
989.0 251.0
991.0 55.0
991.0 98.0
991.0 135.0
991.0 177.0
991.0 211.0
991.0 245.0
991.0 279.0
991.0 314.0
991.0 346.0
991.0 378.0
992.0 279.0
994.0 266.0
1001.0 61.0
1001.0 105.0
1001.0 146.0
1001.0 188.0
1001.0 221.0
1001.0 248.0
1001.0 277.0
1001.0 304.0
1001.0 335.0
1001.0 368.0
1012.0 55.0
1012.0 97.0
1012.0 134.0
1012.0 169.0
1012.0 202.0
1012.0 229.0
1012.0 256.0
1012.0 280.0
1012.0 305.0
1012.0 335.0
1012.0 365.0
1012.0 397.0
1014.0 274.0
1016.0 64.0
1016.0 108.0
1016.0 149.0
1016.0 190.0
1016.0 224.0
1016.0 254.0
1016.0 284.0
1016.0 312.0
1016.0 347.0
1016.0 382.0
1018.0 263.0
1031.0 243.0
1038.0 57.0
1038.0 99.0
1038.0 135.0
1038.0 172.0
1038.0 207.0
1038.0 233.0
1038.0 258.0
1038.0 284.0
1038.0 308.0
1038.0 337.0
1038.0 367.0
1038.0 399.0
1068.0 59.0
1068.0 105.0
1068.0 147.0
1068.0 190.0
1068.0 228.0
1068.0 265.0
1068.0 304.0
1068.0 338.0
1068.0 372.0
1075.0 60.0
1075.0 106.0
1075.0 149.0
1075.0 192.0
1075.0 231.0
1075.0 271.0
1075.0 309.0
1075.0 346.0
1075.0 383.0
1087.0 63.0
1087.0 107.0
1087.0 151.0
1087.0 191.0
1087.0 229.0
1087.0 266.0
1087.0 303.0
1087.0 340.0
1087.0 376.0
1088.0 63.0
1088.0 111.0
1088.0 160.0
1088.0 202.0
1088.0 244.0
1088.0 288.0
1088.0 328.0
1088.0 367.0
1105.0 53.0
1105.0 86.0
1105.0 121.0
1105.0 154.0
1105.0 188.0
1105.0 221.0
1105.0 252.0
1105.0 282.0
1105.0 311.0
1105.0 340.0
1105.0 370.0
1105.0 399.0
1114.0 54.0
1114.0 93.0
1114.0 130.0
1114.0 163.0
1114.0 197.0
1114.0 228.0
1114.0 261.0
1114.0 295.0
1114.0 326.0
1114.0 356.0
1114.0 387.0
1118.0 57.0
1118.0 103.0
1118.0 147.0
1118.0 189.0
1118.0 227.0
1118.0 265.0
1118.0 303.0
1118.0 336.0
1118.0 371.0
1134.0 249.0
1135.0 67.0
1135.0 122.0
1135.0 175.0
1135.0 223.0
1135.0 265.0
1135.0 309.0
1135.0 351.0
1135.0 391.0
1148.0 265.0
1156.0 57.0
1156.0 101.0
1156.0 139.0
1156.0 176.0
1156.0 211.0
1156.0 238.0
1156.0 264.0
1156.0 290.0
1156.0 317.0
1156.0 350.0
1156.0 383.0
1165.0 56.0
1165.0 98.0
1165.0 134.0
1165.0 173.0
1165.0 208.0
1165.0 236.0
1165.0 266.0
1165.0 295.0
1165.0 326.0
1165.0 357.0
1165.0 391.0
1172.0 57.0
1172.0 99.0
1172.0 136.0
1172.0 176.0
1172.0 212.0
1172.0 240.0
1172.0 267.0
1172.0 293.0
1172.0 321.0
1172.0 353.0
1172.0 386.0
1204.0 62.0
1204.0 105.0
1204.0 149.0
1204.0 192.0
1204.0 231.0
1204.0 268.0
1204.0 307.0
1204.0 343.0
1204.0 378.0
1222.0 59.0
1222.0 99.0
1222.0 139.0
1222.0 179.0
1222.0 213.0
1222.0 250.0
1222.0 289.0
1222.0 324.0
1222.0 356.0
1222.0 389.0
1226.0 56.0
1226.0 93.0
1226.0 129.0
1226.0 164.0
1226.0 196.0
1226.0 229.0
1226.0 262.0
1226.0 291.0
1226.0 323.0
1226.0 353.0
1226.0 385.0
1251.0 60.0
1251.0 101.0
1251.0 138.0
1251.0 174.0
1251.0 209.0
1251.0 235.0
1251.0 260.0
1251.0 287.0
1251.0 310.0
1251.0 339.0
1251.0 370.0
1252.0 250.0
1253.0 60.0
1253.0 107.0
1253.0 151.0
1253.0 193.0
1253.0 225.0
1253.0 254.0
1253.0 283.0
1253.0 309.0
1253.0 344.0
1253.0 380.0
1254.0 60.0
1254.0 104.0
1254.0 145.0
1254.0 187.0
1254.0 224.0
1254.0 261.0
1254.0 296.0
1254.0 332.0
1254.0 369.0
1262.0 289.0
1271.0 297.0
1337.0 60.0
1337.0 102.0
1337.0 144.0
1337.0 186.0
1337.0 223.0
1337.0 261.0
1337.0 299.0
1337.0 334.0
1337.0 369.0
1340.0 61.0
1340.0 105.0
1340.0 146.0
1340.0 187.0
1340.0 224.0
1340.0 263.0
1340.0 300.0
1340.0 334.0
1340.0 370.0
1345.0 62.0
1345.0 107.0
1345.0 151.0
1345.0 193.0
1345.0 233.0
1345.0 272.0
1345.0 311.0
1345.0 348.0
1345.0 384.0
1390.0 60.0
1390.0 104.0
1390.0 144.0
1390.0 181.0
1390.0 216.0
1390.0 243.0
1390.0 270.0
1390.0 298.0
1390.0 326.0
1390.0 357.0
1390.0 390.0
1404.0 62.0
1404.0 107.0
1404.0 147.0
1404.0 188.0
1404.0 220.0
1404.0 248.0
1404.0 277.0
1404.0 304.0
1404.0 336.0
1404.0 368.0
1417.0 68.0
1417.0 122.0
1417.0 178.0
1417.0 224.0
1417.0 271.0
1417.0 315.0
1417.0 355.0
1417.0 396.0
1418.0 62.0
1418.0 107.0
1418.0 151.0
1418.0 194.0
1418.0 235.0
1418.0 273.0
1418.0 312.0
1418.0 350.0
1418.0 387.0
1423.0 62.0
1423.0 110.0
1423.0 158.0
1423.0 201.0
1423.0 241.0
1423.0 283.0
1423.0 321.0
1423.0 359.0
1423.0 396.0
1442.0 9.0
1442.0 15.0
1442.0 21.0
1442.0 27.0
1442.0 33.0
1442.0 39.0
1442.0 45.0
1442.0 51.0
1442.0 57.0
1442.0 63.0
1442.0 69.0
1442.0 75.0
1442.0 81.0
1442.0 87.0
1442.0 93.0
1442.0 99.0
1442.0 105.0
1442.0 111.0
1442.0 117.0
1442.0 123.0
1442.0 129.0
1442.0 135.0
1442.0 141.0
1442.0 147.0
1442.0 153.0
1442.0 159.0
1442.0 165.0
1442.0 171.0
1442.0 177.0
1442.0 183.0
1442.0 189.0
1442.0 195.0
1442.0 201.0
1442.0 207.0
1442.0 213.0
1442.0 219.0
1442.0 225.0
1442.0 231.0
1442.0 237.0
1442.0 243.0
1442.0 249.0
1442.0 255.0
1442.0 261.0
1442.0 267.0
1442.0 273.0
1442.0 279.0
1442.0 285.0
1442.0 291.0
1442.0 296.0
1442.0 301.0
1442.0 306.0
1442.0 311.0
1442.0 316.0
1442.0 321.0
1442.0 326.0
1442.0 331.0
1442.0 336.0
1442.0 341.0
1442.0 346.0
1442.0 351.0
1442.0 356.0
1442.0 361.0
1442.0 366.0
1442.0 371.0
1442.0 376.0
1442.0 381.0
1442.0 386.0
1442.0 391.0
1442.0 399.0
