14.0 228.0
26.0 179.0
26.0 186.0
26.0 195.0
26.0 204.0
26.0 214.0
26.0 222.0
26.0 230.0
26.0 238.0
26.0 246.0
26.0 254.0
26.0 262.0
26.0 271.0
26.0 281.0
26.0 291.0
26.0 301.0
26.0 311.0
26.0 321.0
62.0 230.0
87.0 235.0
112.0 188.0
112.0 223.0
112.0 257.0
112.0 302.0
129.0 193.0
129.0 229.0
129.0 269.0
129.0 316.0
157.0 246.0
159.0 238.0
166.0 246.0
167.0 254.0
185.0 226.0
185.0 324.0
217.0 186.0
217.0 219.0
217.0 252.0
217.0 294.0
224.0 188.0
224.0 218.0
224.0 248.0
224.0 279.0
224.0 315.0
227.0 189.0
227.0 225.0
227.0 265.0
227.0 309.0
232.0 185.0
232.0 212.0
232.0 241.0
232.0 273.0
232.0 309.0
235.0 216.0
241.0 184.0
241.0 211.0
241.0 239.0
241.0 268.0
241.0 302.0
258.0 191.0
258.0 227.0
258.0 267.0
258.0 309.0
259.0 192.0
259.0 228.0
259.0 268.0
259.0 316.0
286.0 278.0
296.0 210.0
296.0 260.0
296.0 320.0
303.0 204.0
303.0 251.0
303.0 311.0
306.0 254.0
328.0 190.0
328.0 225.0
328.0 267.0
328.0 307.0
334.0 184.0
334.0 214.0
334.0 242.0
334.0 275.0
334.0 314.0
347.0 40.0
347.0 62.0
347.0 83.0
347.0 104.0
347.0 129.0
347.0 152.0
347.0 173.0
347.0 191.0
347.0 207.0
347.0 223.0
347.0 239.0
347.0 256.0
347.0 272.0
347.0 288.0
347.0 306.0
347.0 324.0
347.0 344.0
347.0 367.0
347.0 389.0
366.0 185.0
366.0 212.0
366.0 243.0
366.0 272.0
366.0 308.0
368.0 233.0
377.0 238.0
382.0 195.0
382.0 234.0
382.0 276.0
382.0 327.0
383.0 199.0
428.0 229.0
428.0 300.0
434.0 235.0
435.0 211.0
435.0 269.0
449.0 217.0
450.0 224.0
450.0 280.0
456.0 41.0
456.0 63.0
456.0 84.0
456.0 105.0
456.0 130.0
456.0 153.0
456.0 174.0
456.0 196.0
456.0 218.0
456.0 239.0
456.0 261.0
456.0 283.0
456.0 305.0
456.0 328.0
456.0 350.0
456.0 372.0
456.0 395.0
466.0 192.0
466.0 273.0
466.0 352.0
468.0 227.0
475.0 191.0
478.0 187.0
487.0 193.0
487.0 227.0
487.0 267.0
487.0 316.0
493.0 214.0
504.0 226.0
513.0 219.0
558.0 211.0
558.0 268.0
580.0 260.0
589.0 205.0
591.0 39.0
591.0 59.0
591.0 78.0
591.0 97.0
591.0 119.0
591.0 142.0
591.0 162.0
591.0 182.0
591.0 202.0
591.0 222.0
591.0 242.0
591.0 263.0
591.0 283.0
591.0 303.0
591.0 324.0
591.0 345.0
591.0 366.0
591.0 387.0
599.0 40.0
599.0 61.0
599.0 82.0
599.0 102.0
599.0 126.0
599.0 149.0
599.0 170.0
599.0 188.0
599.0 204.0
599.0 221.0
599.0 237.0
599.0 253.0
599.0 270.0
599.0 287.0
599.0 304.0
599.0 320.0
599.0 339.0
599.0 361.0
599.0 383.0
601.0 191.0
605.0 184.0
605.0 210.0
605.0 237.0
605.0 268.0
605.0 301.0
607.0 211.0
607.0 260.0
612.0 186.0
612.0 254.0
613.0 194.0
615.0 202.0
623.0 189.0
623.0 220.0
623.0 253.0
623.0 290.0
623.0 329.0
625.0 176.0
625.0 250.0
625.0 349.0
631.0 233.0
632.0 186.0
632.0 213.0
632.0 244.0
632.0 277.0
632.0 311.0
671.0 77.0
677.0 94.0
679.0 101.0
680.0 6.0
680.0 10.0
680.0 14.0
680.0 17.0
680.0 21.0
680.0 24.0
680.0 28.0
680.0 31.0
680.0 34.0
680.0 37.0
680.0 40.0
680.0 43.0
680.0 46.0
680.0 49.0
680.0 52.0
680.0 55.0
680.0 58.0
680.0 61.0
680.0 64.0
680.0 67.0
680.0 70.0
680.0 73.0
680.0 76.0
680.0 79.0
680.0 82.0
680.0 85.0
680.0 88.0
680.0 91.0
680.0 94.0
680.0 97.0
680.0 100.0
680.0 104.0
680.0 108.0
680.0 112.0
680.0 115.0
680.0 119.0
680.0 123.0
680.0 126.0
680.0 130.0
680.0 134.0
680.0 138.0
680.0 142.0
680.0 145.0
680.0 149.0
680.0 153.0
680.0 157.0
680.0 161.0
680.0 165.0
680.0 169.0
680.0 173.0
680.0 177.0
680.0 181.0
680.0 185.0
680.0 189.0
680.0 193.0
680.0 197.0
680.0 201.0
680.0 205.0
680.0 209.0
680.0 213.0
680.0 217.0
680.0 221.0
680.0 225.0
680.0 229.0
680.0 233.0
680.0 237.0
680.0 241.0
680.0 245.0
680.0 249.0
680.0 253.0
680.0 257.0
680.0 261.0
680.0 265.0
680.0 269.0
680.0 273.0
680.0 277.0
680.0 281.0
680.0 285.0
680.0 289.0
680.0 293.0
680.0 297.0
680.0 301.0
680.0 305.0
680.0 309.0
680.0 313.0
680.0 317.0
680.0 321.0
680.0 325.0
680.0 329.0
680.0 333.0
680.0 337.0
680.0 341.0
680.0 345.0
680.0 349.0
680.0 353.0
680.0 357.0
680.0 361.0
680.0 365.0
680.0 369.0
680.0 373.0
680.0 377.0
680.0 381.0
680.0 385.0
680.0 389.0
680.0 393.0
680.0 398.0
696.0 188.0
696.0 222.0
696.0 259.0
696.0 297.0
696.0 337.0
698.0 97.0
708.0 196.0
708.0 232.0
708.0 277.0
708.0 329.0
709.0 213.0
709.0 262.0
714.0 37.0
714.0 54.0
714.0 71.0
714.0 88.0
714.0 104.0
714.0 122.0
714.0 141.0
714.0 160.0
714.0 180.0
714.0 200.0
714.0 219.0
714.0 240.0
714.0 261.0
714.0 281.0
714.0 301.0
714.0 322.0
714.0 342.0
714.0 362.0
714.0 382.0
717.0 96.0
718.0 205.0
718.0 262.0
718.0 331.0
719.0 95.0
719.0 169.0
719.0 337.0
725.0 41.0
725.0 60.0
725.0 80.0
725.0 100.0
725.0 119.0
725.0 138.0
725.0 155.0
725.0 172.0
725.0 188.0
725.0 203.0
725.0 219.0
725.0 235.0
725.0 253.0
725.0 271.0
725.0 289.0
725.0 305.0
725.0 322.0
725.0 338.0
725.0 354.0
725.0 372.0
725.0 389.0
726.0 177.0
726.0 238.0
726.0 377.0
729.0 97.0
729.0 205.0
729.0 349.0
734.0 116.0
734.0 186.0
734.0 215.0
734.0 246.0
734.0 277.0
734.0 309.0
734.0 367.0
735.0 40.0
735.0 60.0
735.0 80.0
735.0 99.0
735.0 118.0
735.0 137.0
735.0 155.0
735.0 172.0
735.0 188.0
735.0 203.0
735.0 220.0
735.0 237.0
735.0 255.0
735.0 273.0
735.0 291.0
735.0 308.0
735.0 326.0
735.0 343.0
735.0 360.0
735.0 377.0
735.0 396.0
736.0 40.0
736.0 61.0
736.0 82.0
736.0 103.0
736.0 125.0
736.0 148.0
736.0 168.0
736.0 191.0
736.0 211.0
736.0 230.0
736.0 251.0
736.0 272.0
736.0 294.0
736.0 315.0
736.0 336.0
736.0 359.0
736.0 380.0
738.0 38.0
738.0 56.0
738.0 74.0
738.0 92.0
738.0 110.0
738.0 131.0
738.0 152.0
738.0 174.0
738.0 196.0
738.0 217.0
738.0 240.0
738.0 263.0
738.0 285.0
738.0 307.0
738.0 329.0
738.0 351.0
738.0 373.0
738.0 395.0
743.0 206.0
744.0 185.0
744.0 212.0
744.0 244.0
744.0 277.0
744.0 317.0
745.0 192.0
745.0 226.0
745.0 260.0
745.0 299.0
751.0 239.0
754.0 203.0
762.0 191.0
762.0 252.0
762.0 333.0
763.0 7.0
763.0 13.0
763.0 18.0
763.0 22.0
763.0 26.0
763.0 30.0
763.0 34.0
763.0 38.0
763.0 42.0
763.0 46.0
763.0 50.0
763.0 54.0
763.0 58.0
763.0 62.0
763.0 66.0
763.0 70.0
763.0 74.0
763.0 78.0
763.0 82.0
763.0 86.0
763.0 90.0
763.0 94.0
763.0 98.0
763.0 102.0
763.0 106.0
763.0 110.0
763.0 114.0
763.0 118.0
763.0 121.0
763.0 125.0
763.0 129.0
763.0 132.0
763.0 136.0
763.0 139.0
763.0 142.0
763.0 145.0
763.0 148.0
763.0 151.0
763.0 154.0
763.0 157.0
763.0 160.0
763.0 163.0
763.0 166.0
763.0 169.0
763.0 172.0
763.0 175.0
763.0 178.0
763.0 181.0
763.0 184.0
763.0 187.0
763.0 190.0
763.0 193.0
763.0 196.0
763.0 199.0
763.0 202.0
763.0 205.0
763.0 208.0
763.0 211.0
763.0 214.0
763.0 217.0
763.0 220.0
763.0 223.0
763.0 226.0
763.0 229.0
763.0 232.0
763.0 235.0
763.0 239.0
763.0 242.0
763.0 245.0
763.0 248.0
763.0 251.0
763.0 255.0
763.0 258.0
763.0 261.0
763.0 264.0
763.0 267.0
763.0 271.0
763.0 274.0
763.0 277.0
763.0 280.0
763.0 283.0
763.0 287.0
763.0 290.0
763.0 293.0
763.0 296.0
763.0 299.0
763.0 303.0
763.0 306.0
763.0 309.0
763.0 312.0
763.0 315.0
763.0 319.0
763.0 322.0
763.0 325.0
763.0 328.0
763.0 331.0
763.0 335.0
763.0 338.0
763.0 341.0
763.0 344.0
763.0 347.0
763.0 351.0
763.0 354.0
763.0 357.0
763.0 360.0
763.0 363.0
763.0 366.0
763.0 369.0
763.0 372.0
763.0 375.0
763.0 379.0
763.0 382.0
763.0 385.0
763.0 389.0
763.0 392.0
763.0 395.0
763.0 399.0
801.0 90.0
819.0 161.0
819.0 364.0
827.0 75.0
837.0 97.0
841.0 41.0
841.0 65.0
841.0 90.0
841.0 116.0
841.0 145.0
841.0 169.0
841.0 196.0
841.0 220.0
841.0 245.0
841.0 270.0
841.0 296.0
841.0 322.0
841.0 348.0
841.0 373.0
841.0 399.0
842.0 36.0
842.0 55.0
842.0 74.0
842.0 93.0
842.0 115.0
842.0 137.0
842.0 160.0
842.0 184.0
842.0 207.0
842.0 232.0
842.0 257.0
842.0 281.0
842.0 305.0
842.0 330.0
842.0 354.0
842.0 378.0
843.0 40.0
843.0 62.0
843.0 85.0
843.0 108.0
843.0 133.0
843.0 156.0
843.0 178.0
843.0 198.0
843.0 220.0
843.0 240.0
843.0 263.0
843.0 284.0
843.0 306.0
843.0 328.0
843.0 352.0
843.0 375.0
843.0 399.0
850.0 109.0
850.0 195.0
850.0 306.0
851.0 70.0
851.0 115.0
851.0 160.0
851.0 202.0
851.0 265.0
851.0 331.0
851.0 377.0
852.0 37.0
852.0 54.0
852.0 71.0
852.0 88.0
852.0 105.0
852.0 124.0
852.0 143.0
852.0 162.0
852.0 181.0
852.0 201.0
852.0 221.0
852.0 241.0
852.0 262.0
852.0 285.0
852.0 306.0
852.0 328.0
852.0 348.0
852.0 368.0
852.0 388.0
857.0 37.0
857.0 53.0
857.0 69.0
857.0 85.0
857.0 100.0
857.0 116.0
857.0 134.0
857.0 152.0
857.0 171.0
857.0 189.0
857.0 207.0
857.0 226.0
857.0 247.0
857.0 267.0
857.0 287.0
857.0 305.0
857.0 324.0
857.0 343.0
857.0 362.0
857.0 381.0
857.0 400.0
860.0 39.0
860.0 58.0
860.0 76.0
860.0 94.0
860.0 114.0
860.0 135.0
860.0 155.0
860.0 174.0
860.0 193.0
860.0 211.0
860.0 230.0
860.0 250.0
860.0 269.0
860.0 289.0
860.0 310.0
860.0 330.0
860.0 350.0
860.0 370.0
860.0 390.0
861.0 41.0
861.0 64.0
861.0 87.0
861.0 110.0
861.0 136.0
861.0 159.0
861.0 182.0
861.0 203.0
861.0 225.0
861.0 247.0
861.0 270.0
861.0 294.0
861.0 316.0
861.0 339.0
861.0 363.0
861.0 387.0
863.0 109.0
863.0 203.0
863.0 337.0
864.0 181.0
864.0 343.0
866.0 29.0
866.0 42.0
866.0 54.0
866.0 66.0
866.0 77.0
866.0 88.0
866.0 100.0
866.0 112.0
866.0 124.0
866.0 136.0
866.0 148.0
866.0 159.0
866.0 171.0
866.0 183.0
866.0 195.0
866.0 207.0
866.0 219.0
866.0 231.0
866.0 243.0
866.0 255.0
866.0 267.0
866.0 279.0
866.0 291.0
866.0 303.0
866.0 315.0
866.0 327.0
866.0 339.0
866.0 351.0
866.0 363.0
866.0 375.0
866.0 387.0
866.0 399.0
870.0 185.0
870.0 347.0
880.0 42.0
880.0 63.0
880.0 84.0
880.0 104.0
880.0 124.0
880.0 143.0
880.0 160.0
880.0 177.0
880.0 194.0
880.0 211.0
880.0 229.0
880.0 246.0
880.0 264.0
880.0 282.0
880.0 300.0
880.0 318.0
880.0 335.0
880.0 352.0
880.0 369.0
880.0 386.0
881.0 204.0
883.0 208.0
886.0 203.0
889.0 202.0
893.0 228.0
894.0 182.0
941.0 37.0
941.0 56.0
941.0 75.0
941.0 94.0
941.0 114.0
941.0 136.0
941.0 158.0
941.0 181.0
941.0 205.0
941.0 229.0
941.0 254.0
941.0 278.0
941.0 302.0
941.0 326.0
941.0 349.0
941.0 373.0
941.0 396.0
949.0 36.0
949.0 53.0
949.0 69.0
949.0 85.0
949.0 101.0
949.0 119.0
949.0 138.0
949.0 157.0
949.0 177.0
949.0 197.0
949.0 217.0
949.0 238.0
949.0 259.0
949.0 279.0
949.0 299.0
949.0 319.0
949.0 338.0
949.0 358.0
949.0 377.0
949.0 397.0
950.0 36.0
950.0 54.0
950.0 72.0
950.0 90.0
950.0 107.0
950.0 127.0
950.0 148.0
950.0 170.0
950.0 192.0
950.0 212.0
950.0 236.0
950.0 261.0
950.0 285.0
950.0 308.0
950.0 331.0
950.0 352.0
950.0 373.0
950.0 396.0
951.0 94.0
951.0 168.0
951.0 277.0
951.0 357.0
953.0 106.0
959.0 36.0
959.0 55.0
959.0 73.0
959.0 91.0
959.0 109.0
959.0 129.0
959.0 151.0
959.0 174.0
959.0 197.0
959.0 219.0
959.0 242.0
959.0 266.0
959.0 290.0
959.0 314.0
959.0 336.0
959.0 358.0
959.0 381.0
960.0 105.0
965.0 118.0
965.0 202.0
965.0 336.0
973.0 35.0
973.0 52.0
973.0 68.0
973.0 85.0
973.0 101.0
973.0 119.0
973.0 138.0
973.0 158.0
973.0 178.0
973.0 197.0
973.0 217.0
973.0 238.0
973.0 259.0
973.0 280.0
973.0 301.0
973.0 322.0
973.0 342.0
973.0 361.0
973.0 381.0
981.0 100.0
983.0 212.0
985.0 90.0
985.0 158.0
985.0 215.0
985.0 301.0
985.0 374.0
989.0 200.0
991.0 36.0
991.0 53.0
991.0 69.0
991.0 86.0
991.0 102.0
991.0 120.0
991.0 139.0
991.0 158.0
991.0 178.0
991.0 198.0
991.0 220.0
991.0 241.0
991.0 262.0
991.0 283.0
991.0 303.0
991.0 323.0
991.0 343.0
991.0 362.0
991.0 383.0
992.0 208.0
994.0 198.0
997.0 112.0
998.0 103.0
1001.0 40.0
1001.0 62.0
1001.0 84.0
1001.0 104.0
1001.0 125.0
1001.0 145.0
1001.0 163.0
1001.0 181.0
1001.0 199.0
1001.0 216.0
1001.0 234.0
1001.0 253.0
1001.0 272.0
1001.0 292.0
1001.0 311.0
1001.0 330.0
1001.0 348.0
1001.0 365.0
1001.0 383.0
1012.0 38.0
1012.0 59.0
1012.0 80.0
1012.0 101.0
1012.0 122.0
1012.0 141.0
1012.0 158.0
1012.0 175.0
1012.0 192.0
1012.0 208.0
1012.0 225.0
1012.0 242.0
1012.0 261.0
1012.0 280.0
1012.0 298.0
1012.0 317.0
1012.0 335.0
1012.0 353.0
1012.0 370.0
1012.0 387.0
1014.0 169.0
1014.0 233.0
1014.0 376.0
1016.0 42.0
1016.0 65.0
1016.0 88.0
1016.0 111.0
1016.0 133.0
1016.0 153.0
1016.0 172.0
1016.0 191.0
1016.0 209.0
1016.0 228.0
1016.0 248.0
1016.0 268.0
1016.0 288.0
1016.0 307.0
1016.0 327.0
1016.0 346.0
1016.0 366.0
1016.0 385.0
1018.0 188.0
1018.0 373.0
1021.0 213.0
1022.0 202.0
1031.0 192.0
1038.0 40.0
1038.0 61.0
1038.0 81.0
1038.0 101.0
1038.0 121.0
1038.0 140.0
1038.0 157.0
1038.0 174.0
1038.0 191.0
1038.0 207.0
1038.0 224.0
1038.0 242.0
1038.0 261.0
1038.0 280.0
1038.0 298.0
1038.0 316.0
1038.0 334.0
1038.0 352.0
1038.0 369.0
1038.0 387.0
1068.0 36.0
1068.0 54.0
1068.0 71.0
1068.0 88.0
1068.0 106.0
1068.0 126.0
1068.0 147.0
1068.0 168.0
1068.0 189.0
1068.0 209.0
1068.0 231.0
1068.0 253.0
1068.0 276.0
1068.0 297.0
1068.0 319.0
1068.0 340.0
1068.0 361.0
1068.0 382.0
1075.0 37.0
1075.0 56.0
1075.0 74.0
1075.0 92.0
1075.0 110.0
1075.0 130.0
1075.0 151.0
1075.0 173.0
1075.0 195.0
1075.0 217.0
1075.0 241.0
1075.0 265.0
1075.0 288.0
1075.0 310.0
1075.0 333.0
1075.0 355.0
1075.0 377.0
1075.0 399.0
1084.0 96.0
1087.0 37.0
1087.0 55.0
1087.0 73.0
1087.0 91.0
1087.0 110.0
1087.0 130.0
1087.0 150.0
1087.0 171.0
1087.0 192.0
1087.0 213.0
1087.0 236.0
1087.0 259.0
1087.0 281.0
1087.0 303.0
1087.0 325.0
1087.0 346.0
1087.0 368.0
1087.0 390.0
1088.0 36.0
1088.0 55.0
1088.0 73.0
1088.0 91.0
1088.0 109.0
1088.0 129.0
1088.0 150.0
1088.0 172.0
1088.0 195.0
1088.0 216.0
1088.0 240.0
1088.0 264.0
1088.0 288.0
1088.0 310.0
1088.0 333.0
1088.0 355.0
1088.0 377.0
1105.0 35.0
1105.0 51.0
1105.0 67.0
1105.0 83.0
1105.0 99.0
1105.0 115.0
1105.0 133.0
1105.0 151.0
1105.0 170.0
1105.0 188.0
1105.0 206.0
1105.0 226.0
1105.0 246.0
1105.0 266.0
1105.0 286.0
1105.0 305.0
1105.0 324.0
1105.0 342.0
1105.0 361.0
1105.0 380.0
1105.0 399.0
1114.0 36.0
1114.0 53.0
1114.0 70.0
1114.0 87.0
1114.0 104.0
1114.0 124.0
1114.0 144.0
1114.0 163.0
1114.0 183.0
1114.0 204.0
1114.0 224.0
1114.0 246.0
1114.0 268.0
1114.0 290.0
1114.0 311.0
1114.0 331.0
1114.0 352.0
1114.0 373.0
1114.0 394.0
1115.0 91.0
1115.0 172.0
1115.0 334.0
1118.0 36.0
1118.0 54.0
1118.0 72.0
1118.0 90.0
1118.0 108.0
1118.0 128.0
1118.0 150.0
1118.0 171.0
1118.0 194.0
1118.0 215.0
1118.0 238.0
1118.0 261.0
1118.0 283.0
1118.0 305.0
1118.0 327.0
1118.0 348.0
1118.0 370.0
1118.0 392.0
1134.0 186.0
1134.0 241.0
1134.0 365.0
1135.0 37.0
1135.0 56.0
1135.0 74.0
1135.0 92.0
1135.0 112.0
1135.0 133.0
1135.0 155.0
1135.0 178.0
1135.0 201.0
1135.0 225.0
1135.0 250.0
1135.0 275.0
1135.0 299.0
1135.0 323.0
1135.0 346.0
1135.0 369.0
1135.0 392.0
1136.0 206.0
1148.0 184.0
1156.0 39.0
1156.0 61.0
1156.0 83.0
1156.0 104.0
1156.0 125.0
1156.0 145.0
1156.0 163.0
1156.0 180.0
1156.0 197.0
1156.0 214.0
1156.0 232.0
1156.0 251.0
1156.0 270.0
1156.0 289.0
1156.0 307.0
1156.0 326.0
1156.0 344.0
1156.0 362.0
1156.0 379.0
1156.0 397.0
1165.0 40.0
1165.0 62.0
1165.0 84.0
1165.0 106.0
1165.0 128.0
1165.0 148.0
1165.0 166.0
1165.0 184.0
1165.0 202.0
1165.0 220.0
1165.0 239.0
1165.0 259.0
1165.0 278.0
1165.0 297.0
1165.0 316.0
1165.0 334.0
1165.0 353.0
1165.0 372.0
1165.0 392.0
1172.0 39.0
1172.0 60.0
1172.0 81.0
1172.0 102.0
1172.0 123.0
1172.0 143.0
1172.0 161.0
1172.0 178.0
1172.0 195.0
1172.0 212.0
1172.0 230.0
1172.0 248.0
1172.0 267.0
1172.0 285.0
1172.0 303.0
1172.0 322.0
1172.0 340.0
1172.0 358.0
1172.0 375.0
1172.0 393.0
1174.0 130.0
1174.0 216.0
1174.0 340.0
1204.0 37.0
1204.0 55.0
1204.0 73.0
1204.0 91.0
1204.0 109.0
1204.0 129.0
1204.0 150.0
1204.0 171.0
1204.0 193.0
1204.0 215.0
1204.0 239.0
1204.0 262.0
1204.0 285.0
1204.0 307.0
1204.0 330.0
1204.0 352.0
1204.0 373.0
1204.0 395.0
1205.0 99.0
1213.0 113.0
1222.0 37.0
1222.0 55.0
1222.0 72.0
1222.0 89.0
1222.0 106.0
1222.0 125.0
1222.0 145.0
1222.0 165.0
1222.0 185.0
1222.0 204.0
1222.0 226.0
1222.0 247.0
1222.0 268.0
1222.0 289.0
1222.0 309.0
1222.0 329.0
1222.0 349.0
1222.0 369.0
1222.0 389.0
1225.0 92.0
1225.0 164.0
1225.0 332.0
1226.0 35.0
1226.0 52.0
1226.0 69.0
1226.0 86.0
1226.0 102.0
1226.0 120.0
1226.0 139.0
1226.0 158.0
1226.0 177.0
1226.0 196.0
1226.0 215.0
1226.0 235.0
1226.0 255.0
1226.0 275.0
1226.0 296.0
1226.0 317.0
1226.0 336.0
1226.0 355.0
1226.0 374.0
1226.0 394.0
1236.0 111.0
1236.0 213.0
1241.0 93.0
1241.0 177.0
1241.0 393.0
1243.0 104.0
1243.0 179.0
1243.0 273.0
1243.0 349.0
1251.0 39.0
1251.0 60.0
1251.0 81.0
1251.0 101.0
1251.0 121.0
1251.0 140.0
1251.0 157.0
1251.0 174.0
1251.0 191.0
1251.0 208.0
1251.0 225.0
1251.0 241.0
1251.0 259.0
1251.0 277.0
1251.0 296.0
1251.0 314.0
1251.0 332.0
1251.0 350.0
1251.0 368.0
1251.0 385.0
1252.0 203.0
1253.0 40.0
1253.0 63.0
1253.0 87.0
1253.0 111.0
1253.0 134.0
1253.0 154.0
1253.0 173.0
1253.0 192.0
1253.0 211.0
1253.0 231.0
1253.0 251.0
1253.0 272.0
1253.0 292.0
1253.0 313.0
1253.0 332.0
1253.0 352.0
1253.0 371.0
1253.0 391.0
1254.0 36.0
1254.0 54.0
1254.0 72.0
1254.0 90.0
1254.0 107.0
1254.0 126.0
1254.0 147.0
1254.0 167.0
1254.0 188.0
1254.0 209.0
1254.0 230.0
1254.0 253.0
1254.0 275.0
1254.0 297.0
1254.0 319.0
1254.0 340.0
1254.0 361.0
1254.0 382.0
1257.0 116.0
1257.0 195.0
1257.0 380.0
1262.0 186.0
1263.0 106.0
1271.0 222.0
1300.0 208.0
1305.0 211.0
1337.0 35.0
1337.0 52.0
1337.0 70.0
1337.0 88.0
1337.0 105.0
1337.0 125.0
1337.0 145.0
1337.0 166.0
1337.0 187.0
1337.0 208.0
1337.0 230.0
1337.0 252.0
1337.0 275.0
1337.0 297.0
1337.0 319.0
1337.0 340.0
1337.0 361.0
1337.0 382.0
1340.0 36.0
1340.0 54.0
1340.0 71.0
1340.0 88.0
1340.0 105.0
1340.0 124.0
1340.0 144.0
1340.0 164.0
1340.0 183.0
1340.0 204.0
1340.0 226.0
1340.0 248.0
1340.0 270.0
1340.0 291.0
1340.0 313.0
1340.0 334.0
1340.0 354.0
1340.0 375.0
1340.0 395.0
1345.0 36.0
1345.0 54.0
1345.0 72.0
1345.0 90.0
1345.0 108.0
1345.0 129.0
1345.0 150.0
1345.0 172.0
1345.0 195.0
1345.0 219.0
1345.0 242.0
1345.0 265.0
1345.0 288.0
1345.0 311.0
1345.0 333.0
1345.0 355.0
1345.0 377.0
1345.0 400.0
1355.0 88.0
1355.0 151.0
1355.0 204.0
1355.0 299.0
1355.0 369.0
1365.0 168.0
1388.0 106.0
1390.0 40.0
1390.0 61.0
1390.0 82.0
1390.0 102.0
1390.0 122.0
1390.0 142.0
1390.0 159.0
1390.0 176.0
1390.0 193.0
1390.0 210.0
1390.0 227.0
1390.0 245.0
1390.0 264.0
1390.0 283.0
1390.0 301.0
1390.0 319.0
1390.0 337.0
1390.0 354.0
1390.0 372.0
1390.0 389.0
1404.0 41.0
1404.0 63.0
1404.0 85.0
1404.0 106.0
1404.0 127.0
1404.0 147.0
1404.0 165.0
1404.0 183.0
1404.0 201.0
1404.0 218.0
1404.0 236.0
1404.0 255.0
1404.0 274.0
1404.0 293.0
1404.0 312.0
1404.0 331.0
1404.0 349.0
1404.0 367.0
1404.0 385.0
1415.0 183.0
1415.0 381.0
1417.0 37.0
1417.0 56.0
1417.0 75.0
1417.0 94.0
1417.0 114.0
1417.0 136.0
1417.0 159.0
1417.0 183.0
1417.0 207.0
1417.0 232.0
1417.0 257.0
1417.0 283.0
1417.0 307.0
1417.0 331.0
1417.0 355.0
1417.0 379.0
1418.0 37.0
1418.0 55.0
1418.0 73.0
1418.0 91.0
1418.0 110.0
1418.0 131.0
1418.0 152.0
1418.0 173.0
1418.0 195.0
1418.0 216.0
1418.0 239.0
1418.0 263.0
1418.0 287.0
1418.0 309.0
1418.0 332.0
1418.0 354.0
1418.0 376.0
1418.0 399.0
1419.0 94.0
1419.0 210.0
1419.0 351.0
1423.0 36.0
1423.0 54.0
1423.0 71.0
1423.0 88.0
1423.0 106.0
1423.0 126.0
1423.0 147.0
1423.0 168.0
1423.0 190.0
1423.0 211.0
1423.0 234.0
1423.0 257.0
1423.0 280.0
1423.0 302.0
1423.0 324.0
1423.0 346.0
1423.0 367.0
1423.0 388.0
1433.0 96.0
1433.0 178.0
1433.0 342.0
1434.0 188.0
1434.0 356.0
1436.0 173.0
1439.0 169.0
1439.0 380.0
1442.0 6.0
1442.0 10.0
1442.0 14.0
1442.0 17.0
1442.0 21.0
1442.0 24.0
1442.0 28.0
1442.0 31.0
1442.0 34.0
1442.0 37.0
1442.0 40.0
1442.0 43.0
1442.0 46.0
1442.0 49.0
1442.0 52.0
1442.0 55.0
1442.0 58.0
1442.0 61.0
1442.0 64.0
1442.0 67.0
1442.0 70.0
1442.0 73.0
1442.0 76.0
1442.0 79.0
1442.0 82.0
1442.0 85.0
1442.0 88.0
1442.0 91.0
1442.0 94.0
1442.0 97.0
1442.0 100.0
1442.0 103.0
1442.0 106.0
1442.0 109.0
1442.0 112.0
1442.0 115.0
1442.0 118.0
1442.0 121.0
1442.0 124.0
1442.0 127.0
1442.0 130.0
1442.0 133.0
1442.0 136.0
1442.0 139.0
1442.0 142.0
1442.0 145.0
1442.0 148.0
1442.0 151.0
1442.0 154.0
1442.0 157.0
1442.0 160.0
1442.0 163.0
1442.0 166.0
1442.0 169.0
1442.0 172.0
1442.0 175.0
1442.0 178.0
1442.0 181.0
1442.0 184.0
1442.0 187.0
1442.0 190.0
1442.0 193.0
1442.0 196.0
1442.0 199.0
1442.0 202.0
1442.0 205.0
1442.0 208.0
1442.0 211.0
1442.0 215.0
1442.0 218.0
1442.0 221.0
1442.0 224.0
1442.0 227.0
1442.0 231.0
1442.0 234.0
1442.0 237.0
1442.0 240.0
1442.0 243.0
1442.0 247.0
1442.0 250.0
1442.0 253.0
1442.0 256.0
1442.0 259.0
1442.0 263.0
1442.0 266.0
1442.0 269.0
1442.0 272.0
1442.0 275.0
1442.0 279.0
1442.0 282.0
1442.0 285.0
1442.0 288.0
1442.0 291.0
1442.0 294.0
1442.0 297.0
1442.0 300.0
1442.0 303.0
1442.0 307.0
1442.0 310.0
1442.0 313.0
1442.0 316.0
1442.0 319.0
1442.0 322.0
1442.0 325.0
1442.0 328.0
1442.0 331.0
1442.0 334.0
1442.0 337.0
1442.0 340.0
1442.0 343.0
1442.0 346.0
1442.0 349.0
1442.0 352.0
1442.0 355.0
1442.0 358.0
1442.0 361.0
1442.0 364.0
1442.0 367.0
1442.0 370.0
1442.0 373.0
1442.0 376.0
1442.0 379.0
1442.0 382.0
1442.0 385.0
1442.0 388.0
1442.0 391.0
1442.0 394.0
1442.0 397.0
1445.0 99.0
1445.0 215.0
1446.0 97.0
1446.0 208.0
1446.0 358.0
