241.0 136.0
334.0 138.0
334.0 393.0
347.0 43.0
347.0 68.0
347.0 89.0
347.0 110.0
347.0 131.0
347.0 153.0
347.0 175.0
347.0 198.0
347.0 220.0
347.0 243.0
347.0 266.0
347.0 289.0
347.0 312.0
347.0 334.0
347.0 355.0
347.0 376.0
347.0 397.0
456.0 44.0
456.0 69.0
456.0 90.0
456.0 111.0
456.0 132.0
456.0 154.0
456.0 177.0
456.0 200.0
456.0 222.0
456.0 244.0
456.0 266.0
456.0 289.0
456.0 312.0
456.0 334.0
456.0 355.0
456.0 377.0
456.0 399.0
466.0 129.0
466.0 393.0
475.0 127.0
475.0 376.0
478.0 132.0
478.0 399.0
591.0 41.0
591.0 64.0
591.0 84.0
591.0 104.0
591.0 124.0
591.0 144.0
591.0 165.0
591.0 185.0
591.0 205.0
591.0 226.0
591.0 247.0
591.0 268.0
591.0 289.0
591.0 310.0
591.0 331.0
591.0 350.0
591.0 369.0
591.0 389.0
599.0 42.0
599.0 67.0
599.0 89.0
599.0 110.0
599.0 131.0
599.0 153.0
599.0 176.0
599.0 198.0
599.0 220.0
599.0 242.0
599.0 265.0
599.0 287.0
599.0 309.0
599.0 331.0
599.0 352.0
599.0 373.0
599.0 394.0
601.0 127.0
605.0 135.0
612.0 116.0
612.0 354.0
625.0 109.0
625.0 337.0
632.0 123.0
680.0 7.0
680.0 12.0
680.0 16.0
680.0 20.0
680.0 24.0
680.0 28.0
680.0 32.0
680.0 36.0
680.0 40.0
680.0 44.0
680.0 48.0
680.0 52.0
680.0 56.0
680.0 60.0
680.0 64.0
680.0 68.0
680.0 72.0
680.0 76.0
680.0 80.0
680.0 84.0
680.0 88.0
680.0 92.0
680.0 96.0
680.0 100.0
680.0 104.0
680.0 108.0
680.0 112.0
680.0 116.0
680.0 120.0
680.0 124.0
680.0 128.0
680.0 132.0
680.0 136.0
680.0 140.0
680.0 144.0
680.0 148.0
680.0 152.0
680.0 156.0
680.0 160.0
680.0 164.0
680.0 168.0
680.0 172.0
680.0 176.0
680.0 180.0
680.0 184.0
680.0 188.0
680.0 192.0
680.0 196.0
680.0 200.0
680.0 204.0
680.0 208.0
680.0 212.0
680.0 216.0
680.0 220.0
680.0 224.0
680.0 228.0
680.0 232.0
680.0 236.0
680.0 240.0
680.0 244.0
680.0 248.0
680.0 252.0
680.0 256.0
680.0 260.0
680.0 264.0
680.0 268.0
680.0 272.0
680.0 276.0
680.0 280.0
680.0 284.0
680.0 288.0
680.0 292.0
680.0 296.0
680.0 300.0
680.0 304.0
680.0 308.0
680.0 312.0
680.0 316.0
680.0 320.0
680.0 324.0
680.0 328.0
680.0 332.0
680.0 336.0
680.0 340.0
680.0 344.0
680.0 348.0
680.0 352.0
680.0 356.0
680.0 360.0
680.0 364.0
680.0 368.0
680.0 372.0
680.0 376.0
680.0 380.0
680.0 384.0
680.0 388.0
680.0 392.0
680.0 396.0
714.0 40.0
714.0 60.0
714.0 80.0
714.0 100.0
714.0 119.0
714.0 138.0
714.0 157.0
714.0 177.0
714.0 197.0
714.0 217.0
714.0 237.0
714.0 257.0
714.0 281.0
714.0 306.0
714.0 331.0
714.0 356.0
714.0 381.0
719.0 107.0
719.0 184.0
719.0 248.0
725.0 40.0
725.0 59.0
725.0 76.0
725.0 92.0
725.0 109.0
725.0 125.0
725.0 141.0
725.0 158.0
725.0 175.0
725.0 192.0
725.0 209.0
725.0 226.0
725.0 244.0
725.0 263.0
725.0 282.0
725.0 302.0
725.0 322.0
725.0 341.0
725.0 360.0
725.0 380.0
726.0 111.0
726.0 386.0
729.0 139.0
729.0 241.0
734.0 134.0
735.0 38.0
735.0 58.0
735.0 76.0
735.0 92.0
735.0 109.0
735.0 125.0
735.0 141.0
735.0 158.0
735.0 176.0
735.0 193.0
735.0 210.0
735.0 227.0
735.0 245.0
735.0 264.0
735.0 283.0
735.0 303.0
735.0 323.0
735.0 343.0
735.0 363.0
735.0 383.0
736.0 42.0
736.0 66.0
736.0 87.0
736.0 108.0
736.0 130.0
736.0 151.0
736.0 172.0
736.0 194.0
736.0 215.0
736.0 236.0
736.0 258.0
736.0 280.0
736.0 302.0
736.0 324.0
736.0 346.0
736.0 367.0
736.0 387.0
738.0 41.0
738.0 63.0
738.0 85.0
738.0 107.0
738.0 128.0
738.0 150.0
738.0 172.0
738.0 194.0
738.0 216.0
738.0 238.0
738.0 260.0
738.0 286.0
738.0 313.0
738.0 342.0
738.0 371.0
744.0 124.0
754.0 379.0
762.0 137.0
763.0 6.0
763.0 11.0
763.0 14.0
763.0 19.0
763.0 22.0
763.0 26.0
763.0 30.0
763.0 34.0
763.0 38.0
763.0 42.0
763.0 46.0
763.0 49.0
763.0 53.0
763.0 56.0
763.0 60.0
763.0 63.0
763.0 66.0
763.0 69.0
763.0 72.0
763.0 75.0
763.0 78.0
763.0 81.0
763.0 84.0
763.0 87.0
763.0 90.0
763.0 93.0
763.0 96.0
763.0 99.0
763.0 102.0
763.0 105.0
763.0 108.0
763.0 111.0
763.0 114.0
763.0 117.0
763.0 120.0
763.0 123.0
763.0 126.0
763.0 129.0
763.0 132.0
763.0 135.0
763.0 139.0
763.0 142.0
763.0 145.0
763.0 148.0
763.0 151.0
763.0 155.0
763.0 158.0
763.0 161.0
763.0 164.0
763.0 167.0
763.0 171.0
763.0 174.0
763.0 177.0
763.0 180.0
763.0 183.0
763.0 187.0
763.0 190.0
763.0 193.0
763.0 196.0
763.0 199.0
763.0 203.0
763.0 206.0
763.0 209.0
763.0 212.0
763.0 215.0
763.0 219.0
763.0 222.0
763.0 225.0
763.0 228.0
763.0 231.0
763.0 235.0
763.0 238.0
763.0 241.0
763.0 244.0
763.0 247.0
763.0 251.0
763.0 254.0
763.0 257.0
763.0 260.0
763.0 263.0
763.0 267.0
763.0 270.0
763.0 273.0
763.0 276.0
763.0 279.0
763.0 283.0
763.0 286.0
763.0 289.0
763.0 292.0
763.0 295.0
763.0 299.0
763.0 302.0
763.0 305.0
763.0 308.0
763.0 311.0
763.0 315.0
763.0 318.0
763.0 321.0
763.0 324.0
763.0 327.0
763.0 330.0
763.0 333.0
763.0 336.0
763.0 339.0
763.0 342.0
763.0 345.0
763.0 348.0
763.0 351.0
763.0 354.0
763.0 357.0
763.0 360.0
763.0 363.0
763.0 366.0
763.0 369.0
763.0 372.0
763.0 375.0
763.0 378.0
763.0 381.0
763.0 384.0
763.0 387.0
763.0 390.0
763.0 393.0
763.0 396.0
819.0 109.0
819.0 223.0
841.0 45.0
841.0 73.0
841.0 97.0
841.0 120.0
841.0 145.0
841.0 171.0
841.0 197.0
841.0 221.0
841.0 246.0
841.0 271.0
841.0 296.0
841.0 322.0
841.0 346.0
841.0 369.0
841.0 393.0
842.0 39.0
842.0 63.0
842.0 87.0
842.0 111.0
842.0 135.0
842.0 159.0
842.0 183.0
842.0 207.0
842.0 231.0
842.0 255.0
842.0 284.0
842.0 313.0
842.0 344.0
842.0 376.0
843.0 43.0
843.0 69.0
843.0 91.0
843.0 113.0
843.0 135.0
843.0 157.0
843.0 181.0
843.0 204.0
843.0 228.0
843.0 251.0
843.0 275.0
843.0 299.0
843.0 323.0
843.0 345.0
843.0 367.0
843.0 389.0
850.0 135.0
850.0 255.0
851.0 70.0
851.0 115.0
851.0 162.0
851.0 207.0
851.0 253.0
852.0 40.0
852.0 61.0
852.0 81.0
852.0 101.0
852.0 120.0
852.0 140.0
852.0 160.0
852.0 180.0
852.0 200.0
852.0 220.0
852.0 240.0
852.0 260.0
852.0 284.0
852.0 308.0
852.0 333.0
852.0 360.0
852.0 386.0
857.0 39.0
857.0 58.0
857.0 77.0
857.0 96.0
857.0 115.0
857.0 133.0
857.0 151.0
857.0 170.0
857.0 189.0
857.0 207.0
857.0 226.0
857.0 245.0
857.0 266.0
857.0 289.0
857.0 311.0
857.0 335.0
857.0 359.0
857.0 383.0
860.0 41.0
860.0 64.0
860.0 83.0
860.0 102.0
860.0 121.0
860.0 141.0
860.0 161.0
860.0 181.0
860.0 201.0
860.0 220.0
860.0 240.0
860.0 260.0
860.0 281.0
860.0 301.0
860.0 321.0
860.0 341.0
860.0 361.0
860.0 381.0
861.0 43.0
861.0 70.0
861.0 93.0
861.0 115.0
861.0 137.0
861.0 162.0
861.0 186.0
861.0 210.0
861.0 234.0
861.0 258.0
861.0 282.0
861.0 306.0
861.0 329.0
861.0 352.0
861.0 374.0
861.0 397.0
863.0 124.0
863.0 226.0
864.0 118.0
864.0 235.0
866.0 28.0
866.0 42.0
866.0 55.0
866.0 67.0
866.0 79.0
866.0 90.0
866.0 102.0
866.0 114.0
866.0 126.0
866.0 138.0
866.0 150.0
866.0 162.0
866.0 174.0
866.0 186.0
866.0 198.0
866.0 210.0
866.0 222.0
866.0 234.0
866.0 246.0
866.0 259.0
866.0 272.0
866.0 285.0
866.0 298.0
866.0 311.0
866.0 324.0
866.0 337.0
866.0 350.0
866.0 363.0
866.0 376.0
866.0 389.0
870.0 117.0
870.0 345.0
880.0 40.0
880.0 60.0
880.0 78.0
880.0 95.0
880.0 112.0
880.0 128.0
880.0 146.0
880.0 163.0
880.0 181.0
880.0 198.0
880.0 215.0
880.0 232.0
880.0 250.0
880.0 269.0
880.0 290.0
880.0 311.0
880.0 332.0
880.0 352.0
880.0 372.0
880.0 393.0
881.0 131.0
881.0 389.0
883.0 138.0
883.0 399.0
886.0 124.0
889.0 120.0
889.0 388.0
894.0 100.0
894.0 340.0
941.0 40.0
941.0 63.0
941.0 86.0
941.0 109.0
941.0 133.0
941.0 156.0
941.0 179.0
941.0 202.0
941.0 226.0
941.0 250.0
941.0 277.0
941.0 305.0
941.0 335.0
941.0 367.0
941.0 399.0
949.0 40.0
949.0 61.0
949.0 81.0
949.0 100.0
949.0 119.0
949.0 138.0
949.0 157.0
949.0 177.0
949.0 197.0
949.0 217.0
949.0 237.0
949.0 257.0
949.0 280.0
949.0 304.0
949.0 329.0
949.0 356.0
949.0 381.0
950.0 39.0
950.0 61.0
950.0 83.0
950.0 105.0
950.0 127.0
950.0 148.0
950.0 171.0
950.0 193.0
950.0 215.0
950.0 237.0
950.0 258.0
950.0 285.0
950.0 312.0
950.0 340.0
950.0 369.0
950.0 399.0
951.0 88.0
951.0 168.0
951.0 246.0
953.0 133.0
959.0 39.0
959.0 61.0
959.0 84.0
959.0 108.0
959.0 130.0
959.0 153.0
959.0 177.0
959.0 200.0
959.0 222.0
959.0 245.0
959.0 271.0
959.0 300.0
959.0 329.0
959.0 359.0
959.0 389.0
965.0 115.0
965.0 237.0
973.0 38.0
973.0 58.0
973.0 79.0
973.0 99.0
973.0 120.0
973.0 140.0
973.0 160.0
973.0 180.0
973.0 200.0
973.0 221.0
973.0 241.0
973.0 263.0
973.0 288.0
973.0 312.0
973.0 338.0
973.0 364.0
973.0 389.0
983.0 149.0
985.0 87.0
985.0 161.0
985.0 227.0
989.0 129.0
991.0 38.0
991.0 58.0
991.0 78.0
991.0 98.0
991.0 118.0
991.0 138.0
991.0 158.0
991.0 178.0
991.0 198.0
991.0 218.0
991.0 238.0
991.0 258.0
991.0 281.0
991.0 305.0
991.0 330.0
991.0 355.0
991.0 381.0
994.0 139.0
998.0 249.0
1001.0 38.0
1001.0 59.0
1001.0 77.0
1001.0 95.0
1001.0 113.0
1001.0 130.0
1001.0 148.0
1001.0 166.0
1001.0 184.0
1001.0 203.0
1001.0 221.0
1001.0 239.0
1001.0 258.0
1001.0 280.0
1001.0 301.0
1001.0 322.0
1001.0 343.0
1001.0 364.0
1001.0 385.0
1012.0 37.0
1012.0 57.0
1012.0 75.0
1012.0 92.0
1012.0 109.0
1012.0 126.0
1012.0 143.0
1012.0 161.0
1012.0 179.0
1012.0 197.0
1012.0 215.0
1012.0 233.0
1012.0 251.0
1012.0 271.0
1012.0 292.0
1012.0 312.0
1012.0 333.0
1012.0 354.0
1012.0 375.0
1012.0 396.0
1014.0 105.0
1014.0 234.0
1014.0 345.0
1016.0 40.0
1016.0 62.0
1016.0 81.0
1016.0 100.0
1016.0 119.0
1016.0 138.0
1016.0 157.0
1016.0 177.0
1016.0 197.0
1016.0 216.0
1016.0 236.0
1016.0 256.0
1016.0 279.0
1016.0 302.0
1016.0 326.0
1016.0 349.0
1016.0 372.0
1016.0 395.0
1018.0 109.0
1018.0 355.0
1022.0 125.0
1031.0 119.0
1038.0 38.0
1038.0 58.0
1038.0 76.0
1038.0 93.0
1038.0 110.0
1038.0 126.0
1038.0 143.0
1038.0 161.0
1038.0 178.0
1038.0 196.0
1038.0 214.0
1038.0 232.0
1038.0 250.0
1038.0 270.0
1038.0 290.0
1038.0 311.0
1038.0 332.0
1038.0 353.0
1038.0 373.0
1038.0 393.0
1068.0 39.0
1068.0 61.0
1068.0 82.0
1068.0 103.0
1068.0 124.0
1068.0 145.0
1068.0 166.0
1068.0 187.0
1068.0 208.0
1068.0 229.0
1068.0 250.0
1068.0 275.0
1068.0 301.0
1068.0 328.0
1068.0 356.0
1068.0 384.0
1075.0 40.0
1075.0 62.0
1075.0 84.0
1075.0 106.0
1075.0 128.0
1075.0 150.0
1075.0 172.0
1075.0 194.0
1075.0 216.0
1075.0 238.0
1075.0 261.0
1075.0 288.0
1075.0 316.0
1075.0 345.0
1075.0 374.0
1087.0 40.0
1087.0 62.0
1087.0 84.0
1087.0 105.0
1087.0 126.0
1087.0 147.0
1087.0 168.0
1087.0 189.0
1087.0 210.0
1087.0 231.0
1087.0 252.0
1087.0 278.0
1087.0 304.0
1087.0 331.0
1087.0 359.0
1087.0 388.0
1088.0 39.0
1088.0 61.0
1088.0 83.0
1088.0 105.0
1088.0 128.0
1088.0 150.0
1088.0 172.0
1088.0 195.0
1088.0 218.0
1088.0 240.0
1088.0 263.0
1088.0 290.0
1088.0 316.0
1088.0 345.0
1088.0 375.0
1105.0 38.0
1105.0 57.0
1105.0 76.0
1105.0 95.0
1105.0 114.0
1105.0 132.0
1105.0 150.0
1105.0 168.0
1105.0 186.0
1105.0 205.0
1105.0 224.0
1105.0 243.0
1105.0 262.0
1105.0 284.0
1105.0 307.0
1105.0 330.0
1105.0 354.0
1105.0 378.0
1114.0 38.0
1114.0 59.0
1114.0 80.0
1114.0 101.0
1114.0 122.0
1114.0 142.0
1114.0 163.0
1114.0 183.0
1114.0 203.0
1114.0 224.0
1114.0 245.0
1114.0 268.0
1114.0 294.0
1114.0 321.0
1114.0 347.0
1114.0 374.0
1115.0 97.0
1115.0 184.0
1118.0 39.0
1118.0 62.0
1118.0 85.0
1118.0 107.0
1118.0 130.0
1118.0 152.0
1118.0 174.0
1118.0 197.0
1118.0 220.0
1118.0 242.0
1118.0 266.0
1118.0 293.0
1118.0 322.0
1118.0 351.0
1118.0 381.0
1133.0 116.0
1134.0 114.0
1134.0 205.0
1134.0 356.0
1135.0 40.0
1135.0 63.0
1135.0 86.0
1135.0 109.0
1135.0 131.0
1135.0 154.0
1135.0 178.0
1135.0 201.0
1135.0 224.0
1135.0 247.0
1135.0 274.0
1135.0 302.0
1135.0 332.0
1135.0 362.0
1135.0 393.0
1136.0 380.0
1148.0 117.0
1148.0 396.0
1156.0 37.0
1156.0 58.0
1156.0 77.0
1156.0 95.0
1156.0 112.0
1156.0 129.0
1156.0 147.0
1156.0 165.0
1156.0 183.0
1156.0 200.0
1156.0 218.0
1156.0 236.0
1156.0 254.0
1156.0 275.0
1156.0 296.0
1156.0 317.0
1156.0 339.0
1156.0 360.0
1156.0 380.0
1165.0 38.0
1165.0 59.0
1165.0 78.0
1165.0 96.0
1165.0 114.0
1165.0 133.0
1165.0 152.0
1165.0 171.0
1165.0 190.0
1165.0 209.0
1165.0 228.0
1165.0 247.0
1165.0 267.0
1165.0 289.0
1165.0 311.0
1165.0 334.0
1165.0 355.0
1165.0 376.0
1165.0 399.0
1172.0 37.0
1172.0 57.0
1172.0 75.0
1172.0 92.0
1172.0 109.0
1172.0 126.0
1172.0 143.0
1172.0 161.0
1172.0 179.0
1172.0 197.0
1172.0 215.0
1172.0 233.0
1172.0 251.0
1172.0 271.0
1172.0 293.0
1172.0 314.0
1172.0 336.0
1172.0 357.0
1172.0 378.0
1172.0 399.0
1174.0 112.0
1174.0 190.0
1204.0 40.0
1204.0 62.0
1204.0 84.0
1204.0 106.0
1204.0 129.0
1204.0 151.0
1204.0 173.0
1204.0 195.0
1204.0 217.0
1204.0 238.0
1204.0 261.0
1204.0 289.0
1204.0 316.0
1204.0 345.0
1204.0 374.0
1222.0 39.0
1222.0 60.0
1222.0 81.0
1222.0 102.0
1222.0 123.0
1222.0 143.0
1222.0 164.0
1222.0 185.0
1222.0 206.0
1222.0 227.0
1222.0 248.0
1222.0 271.0
1222.0 297.0
1222.0 322.0
1222.0 350.0
1222.0 378.0
1225.0 103.0
1225.0 158.0
1225.0 227.0
1226.0 38.0
1226.0 58.0
1226.0 78.0
1226.0 98.0
1226.0 117.0
1226.0 136.0
1226.0 156.0
1226.0 176.0
1226.0 195.0
1226.0 215.0
1226.0 235.0
1226.0 255.0
1226.0 280.0
1226.0 305.0
1226.0 331.0
1226.0 358.0
1226.0 384.0
1236.0 133.0
1241.0 115.0
1241.0 207.0
1243.0 113.0
1243.0 202.0
1251.0 37.0
1251.0 57.0
1251.0 75.0
1251.0 92.0
1251.0 109.0
1251.0 126.0
1251.0 143.0
1251.0 161.0
1251.0 178.0
1251.0 196.0
1251.0 213.0
1251.0 231.0
1251.0 249.0
1251.0 269.0
1251.0 290.0
1251.0 310.0
1251.0 331.0
1251.0 352.0
1251.0 373.0
1251.0 393.0
1252.0 397.0
1253.0 37.0
1253.0 59.0
1253.0 79.0
1253.0 98.0
1253.0 117.0
1253.0 136.0
1253.0 156.0
1253.0 176.0
1253.0 196.0
1253.0 215.0
1253.0 235.0
1253.0 255.0
1253.0 278.0
1253.0 301.0
1253.0 325.0
1253.0 348.0
1253.0 371.0
1253.0 394.0
1254.0 38.0
1254.0 60.0
1254.0 82.0
1254.0 103.0
1254.0 124.0
1254.0 145.0
1254.0 166.0
1254.0 187.0
1254.0 207.0
1254.0 228.0
1254.0 249.0
1254.0 274.0
1254.0 300.0
1254.0 326.0
1254.0 354.0
1254.0 382.0
1257.0 107.0
1257.0 222.0
1262.0 122.0
1263.0 203.0
1300.0 135.0
1305.0 138.0
1337.0 38.0
1337.0 59.0
1337.0 80.0
1337.0 101.0
1337.0 122.0
1337.0 144.0
1337.0 165.0
1337.0 186.0
1337.0 207.0
1337.0 229.0
1337.0 250.0
1337.0 275.0
1337.0 301.0
1337.0 327.0
1337.0 354.0
1337.0 382.0
1340.0 38.0
1340.0 59.0
1340.0 80.0
1340.0 101.0
1340.0 121.0
1340.0 142.0
1340.0 163.0
1340.0 184.0
1340.0 205.0
1340.0 226.0
1340.0 247.0
1340.0 270.0
1340.0 295.0
1340.0 321.0
1340.0 349.0
1340.0 377.0
1345.0 38.0
1345.0 60.0
1345.0 82.0
1345.0 104.0
1345.0 127.0
1345.0 150.0
1345.0 172.0
1345.0 194.0
1345.0 218.0
1345.0 240.0
1345.0 266.0
1345.0 294.0
1345.0 322.0
1345.0 350.0
1345.0 378.0
1355.0 84.0
1355.0 134.0
1355.0 193.0
1365.0 204.0
1390.0 37.0
1390.0 57.0
1390.0 75.0
1390.0 91.0
1390.0 108.0
1390.0 124.0
1390.0 141.0
1390.0 159.0
1390.0 177.0
1390.0 195.0
1390.0 212.0
1390.0 229.0
1390.0 246.0
1390.0 266.0
1390.0 286.0
1390.0 307.0
1390.0 328.0
1390.0 349.0
1390.0 369.0
1390.0 389.0
1404.0 39.0
1404.0 60.0
1404.0 79.0
1404.0 97.0
1404.0 114.0
1404.0 132.0
1404.0 151.0
1404.0 169.0
1404.0 187.0
1404.0 205.0
1404.0 223.0
1404.0 241.0
1404.0 260.0
1404.0 281.0
1404.0 303.0
1404.0 325.0
1404.0 347.0
1404.0 369.0
1404.0 391.0
1415.0 132.0
1415.0 244.0
1417.0 41.0
1417.0 65.0
1417.0 89.0
1417.0 113.0
1417.0 136.0
1417.0 159.0
1417.0 182.0
1417.0 206.0
1417.0 230.0
1417.0 254.0
1417.0 282.0
1417.0 311.0
1417.0 342.0
1417.0 374.0
1418.0 39.0
1418.0 62.0
1418.0 84.0
1418.0 106.0
1418.0 129.0
1418.0 151.0
1418.0 173.0
1418.0 195.0
1418.0 218.0
1418.0 240.0
1418.0 264.0
1418.0 291.0
1418.0 318.0
1418.0 347.0
1418.0 376.0
1419.0 132.0
1419.0 234.0
1423.0 38.0
1423.0 59.0
1423.0 80.0
1423.0 101.0
1423.0 122.0
1423.0 143.0
1423.0 164.0
1423.0 185.0
1423.0 206.0
1423.0 227.0
1423.0 248.0
1423.0 273.0
1423.0 299.0
1423.0 326.0
1423.0 354.0
1423.0 382.0
1433.0 111.0
1433.0 231.0
1434.0 125.0
1436.0 129.0
1439.0 208.0
1442.0 6.0
1442.0 10.0
1442.0 14.0
1442.0 17.0
1442.0 21.0
1442.0 24.0
1442.0 28.0
1442.0 31.0
1442.0 34.0
1442.0 37.0
1442.0 40.0
1442.0 43.0
1442.0 46.0
1442.0 49.0
1442.0 52.0
1442.0 55.0
1442.0 58.0
1442.0 61.0
1442.0 64.0
1442.0 67.0
1442.0 70.0
1442.0 73.0
1442.0 76.0
1442.0 79.0
1442.0 82.0
1442.0 85.0
1442.0 88.0
1442.0 91.0
1442.0 94.0
1442.0 97.0
1442.0 100.0
1442.0 103.0
1442.0 106.0
1442.0 109.0
1442.0 112.0
1442.0 115.0
1442.0 118.0
1442.0 121.0
1442.0 124.0
1442.0 127.0
1442.0 130.0
1442.0 133.0
1442.0 136.0
1442.0 139.0
1442.0 142.0
1442.0 145.0
1442.0 148.0
1442.0 151.0
1442.0 154.0
1442.0 157.0
1442.0 160.0
1442.0 163.0
1442.0 166.0
1442.0 169.0
1442.0 172.0
1442.0 175.0
1442.0 178.0
1442.0 181.0
1442.0 184.0
1442.0 187.0
1442.0 190.0
1442.0 193.0
1442.0 196.0
1442.0 199.0
1442.0 202.0
1442.0 205.0
1442.0 208.0
1442.0 211.0
1442.0 214.0
1442.0 217.0
1442.0 220.0
1442.0 223.0
1442.0 226.0
1442.0 229.0
1442.0 232.0
1442.0 235.0
1442.0 238.0
1442.0 241.0
1442.0 244.0
1442.0 247.0
1442.0 250.0
1442.0 254.0
1442.0 258.0
1442.0 262.0
1442.0 265.0
1442.0 269.0
1442.0 273.0
1442.0 276.0
1442.0 280.0
1442.0 284.0
1442.0 288.0
1442.0 292.0
1442.0 295.0
1442.0 299.0
1442.0 303.0
1442.0 306.0
1442.0 310.0
1442.0 314.0
1442.0 318.0
1442.0 322.0
1442.0 326.0
1442.0 330.0
1442.0 334.0
1442.0 338.0
1442.0 342.0
1442.0 346.0
1442.0 350.0
1442.0 354.0
1442.0 358.0
1442.0 362.0
1442.0 366.0
1442.0 370.0
1442.0 374.0
1442.0 378.0
1442.0 382.0
1442.0 386.0
1442.0 390.0
1442.0 394.0
1445.0 143.0
1446.0 109.0
1446.0 187.0
