14.0 57.0
14.0 93.0
14.0 126.0
14.0 153.0
14.0 180.0
14.0 208.0
14.0 236.0
14.0 269.0
14.0 309.0
14.0 350.0
26.0 6.0
26.0 10.0
26.0 14.0
26.0 18.0
26.0 22.0
26.0 26.0
26.0 30.0
26.0 34.0
26.0 38.0
26.0 42.0
26.0 46.0
26.0 50.0
26.0 54.0
26.0 58.0
26.0 62.0
26.0 66.0
26.0 70.0
26.0 74.0
26.0 78.0
26.0 82.0
26.0 86.0
26.0 90.0
26.0 94.0
26.0 98.0
26.0 102.0
26.0 106.0
26.0 110.0
26.0 114.0
26.0 118.0
26.0 122.0
26.0 126.0
26.0 130.0
26.0 134.0
26.0 138.0
26.0 142.0
26.0 146.0
26.0 150.0
26.0 154.0
26.0 158.0
26.0 162.0
26.0 166.0
26.0 170.0
26.0 174.0
26.0 178.0
26.0 182.0
26.0 186.0
26.0 190.0
26.0 194.0
26.0 198.0
26.0 202.0
26.0 206.0
26.0 210.0
26.0 214.0
26.0 218.0
26.0 222.0
26.0 226.0
26.0 230.0
26.0 234.0
26.0 238.0
26.0 242.0
26.0 246.0
26.0 250.0
26.0 254.0
26.0 258.0
26.0 262.0
26.0 266.0
26.0 270.0
26.0 274.0
26.0 278.0
26.0 282.0
26.0 286.0
26.0 290.0
26.0 294.0
26.0 298.0
26.0 302.0
26.0 306.0
26.0 310.0
26.0 314.0
26.0 318.0
26.0 322.0
26.0 326.0
26.0 330.0
26.0 334.0
26.0 338.0
26.0 342.0
26.0 346.0
26.0 350.0
26.0 354.0
26.0 358.0
26.0 362.0
26.0 366.0
26.0 370.0
26.0 374.0
26.0 378.0
26.0 382.0
26.0 386.0
26.0 390.0
26.0 394.0
62.0 56.0
62.0 92.0
62.0 127.0
62.0 155.0
62.0 183.0
62.0 211.0
62.0 239.0
62.0 272.0
62.0 313.0
62.0 355.0
87.0 57.0
87.0 95.0
87.0 129.0
87.0 157.0
87.0 185.0
87.0 213.0
87.0 242.0
87.0 280.0
87.0 325.0
87.0 368.0
112.0 35.0
112.0 57.0
112.0 79.0
112.0 100.0
112.0 121.0
112.0 143.0
112.0 164.0
112.0 186.0
112.0 207.0
112.0 227.0
112.0 248.0
112.0 268.0
112.0 288.0
112.0 308.0
112.0 328.0
112.0 351.0
112.0 377.0
129.0 36.0
129.0 58.0
129.0 81.0
129.0 103.0
129.0 125.0
129.0 147.0
129.0 170.0
129.0 192.0
129.0 214.0
129.0 237.0
129.0 259.0
129.0 281.0
129.0 302.0
129.0 323.0
129.0 346.0
129.0 373.0
139.0 277.0
157.0 57.0
157.0 93.0
157.0 128.0
157.0 156.0
157.0 184.0
157.0 212.0
157.0 240.0
157.0 276.0
157.0 318.0
157.0 361.0
159.0 56.0
159.0 93.0
159.0 127.0
159.0 155.0
159.0 183.0
159.0 211.0
159.0 240.0
159.0 276.0
159.0 318.0
159.0 360.0
165.0 73.0
165.0 116.0
165.0 151.0
165.0 184.0
165.0 216.0
165.0 255.0
165.0 315.0
166.0 59.0
166.0 95.0
166.0 129.0
166.0 157.0
166.0 184.0
166.0 212.0
166.0 241.0
166.0 279.0
166.0 324.0
166.0 368.0
167.0 61.0
167.0 98.0
167.0 131.0
167.0 159.0
167.0 188.0
167.0 217.0
167.0 248.0
167.0 288.0
167.0 331.0
167.0 392.0
185.0 53.0
185.0 87.0
185.0 118.0
185.0 145.0
185.0 171.0
185.0 197.0
185.0 223.0
185.0 251.0
185.0 285.0
185.0 325.0
185.0 366.0
217.0 34.0
217.0 56.0
217.0 78.0
217.0 99.0
217.0 121.0
217.0 143.0
217.0 164.0
217.0 187.0
217.0 209.0
217.0 231.0
217.0 253.0
217.0 273.0
217.0 293.0
217.0 313.0
217.0 333.0
217.0 357.0
217.0 384.0
224.0 35.0
224.0 56.0
224.0 77.0
224.0 96.0
224.0 116.0
224.0 136.0
224.0 156.0
224.0 176.0
224.0 197.0
224.0 217.0
224.0 236.0
224.0 256.0
224.0 276.0
224.0 295.0
224.0 314.0
224.0 332.0
224.0 354.0
224.0 378.0
227.0 35.0
227.0 58.0
227.0 81.0
227.0 105.0
227.0 128.0
227.0 151.0
227.0 174.0
227.0 197.0
227.0 221.0
227.0 244.0
227.0 265.0
227.0 286.0
227.0 308.0
227.0 329.0
227.0 354.0
227.0 383.0
232.0 35.0
232.0 54.0
232.0 74.0
232.0 93.0
232.0 113.0
232.0 133.0
232.0 154.0
232.0 174.0
232.0 194.0
232.0 213.0
232.0 233.0
232.0 253.0
232.0 272.0
232.0 291.0
232.0 310.0
232.0 329.0
232.0 350.0
232.0 374.0
232.0 399.0
235.0 259.0
235.0 325.0
241.0 35.0
241.0 55.0
241.0 76.0
241.0 95.0
241.0 115.0
241.0 135.0
241.0 155.0
241.0 175.0
241.0 196.0
241.0 215.0
241.0 234.0
241.0 254.0
241.0 272.0
241.0 290.0
241.0 309.0
241.0 327.0
241.0 348.0
241.0 373.0
241.0 399.0
258.0 36.0
258.0 59.0
258.0 81.0
258.0 104.0
258.0 127.0
258.0 149.0
258.0 171.0
258.0 193.0
258.0 216.0
258.0 239.0
258.0 260.0
258.0 281.0
258.0 301.0
258.0 322.0
258.0 345.0
258.0 372.0
258.0 400.0
259.0 35.0
259.0 59.0
259.0 83.0
259.0 107.0
259.0 130.0
259.0 154.0
259.0 177.0
259.0 200.0
259.0 223.0
259.0 246.0
259.0 267.0
259.0 289.0
259.0 311.0
259.0 332.0
259.0 357.0
259.0 384.0
286.0 57.0
286.0 92.0
286.0 126.0
286.0 153.0
286.0 180.0
286.0 208.0
286.0 236.0
286.0 269.0
286.0 311.0
286.0 353.0
296.0 51.0
296.0 83.0
296.0 112.0
296.0 137.0
296.0 160.0
296.0 183.0
296.0 207.0
296.0 231.0
296.0 259.0
296.0 292.0
296.0 328.0
296.0 363.0
303.0 51.0
303.0 83.0
303.0 112.0
303.0 138.0
303.0 162.0
303.0 186.0
303.0 210.0
303.0 233.0
303.0 261.0
303.0 292.0
303.0 325.0
303.0 361.0
306.0 58.0
306.0 94.0
306.0 127.0
306.0 155.0
306.0 183.0
306.0 211.0
306.0 239.0
306.0 272.0
306.0 317.0
306.0 362.0
328.0 34.0
328.0 57.0
328.0 80.0
328.0 103.0
328.0 125.0
328.0 149.0
328.0 173.0
328.0 197.0
328.0 220.0
328.0 243.0
328.0 265.0
328.0 287.0
328.0 308.0
328.0 330.0
328.0 353.0
328.0 381.0
334.0 35.0
334.0 57.0
334.0 78.0
334.0 99.0
334.0 121.0
334.0 142.0
334.0 163.0
334.0 185.0
334.0 206.0
334.0 227.0
334.0 248.0
334.0 268.0
334.0 287.0
334.0 306.0
334.0 326.0
334.0 349.0
334.0 376.0
347.0 28.0
347.0 44.0
347.0 59.0
347.0 73.0
347.0 88.0
347.0 101.0
347.0 115.0
347.0 129.0
347.0 142.0
347.0 155.0
347.0 168.0
347.0 181.0
347.0 194.0
347.0 207.0
347.0 220.0
347.0 233.0
347.0 246.0
347.0 259.0
347.0 272.0
347.0 286.0
347.0 301.0
347.0 315.0
347.0 330.0
347.0 345.0
347.0 361.0
347.0 378.0
347.0 397.0
366.0 35.0
366.0 56.0
366.0 78.0
366.0 98.0
366.0 119.0
366.0 140.0
366.0 160.0
366.0 180.0
366.0 200.0
366.0 220.0
366.0 241.0
366.0 260.0
366.0 279.0
366.0 299.0
366.0 319.0
366.0 338.0
366.0 363.0
366.0 388.0
368.0 248.0
368.0 330.0
377.0 112.0
377.0 254.0
377.0 320.0
382.0 36.0
382.0 60.0
382.0 83.0
382.0 107.0
382.0 131.0
382.0 156.0
382.0 179.0
382.0 203.0
382.0 227.0
382.0 251.0
382.0 273.0
382.0 295.0
382.0 318.0
382.0 341.0
382.0 368.0
382.0 397.0
383.0 109.0
383.0 201.0
383.0 263.0
383.0 317.0
428.0 54.0
428.0 90.0
428.0 124.0
428.0 152.0
428.0 178.0
428.0 204.0
428.0 232.0
428.0 264.0
428.0 304.0
428.0 345.0
434.0 56.0
434.0 94.0
434.0 131.0
434.0 160.0
434.0 188.0
434.0 216.0
434.0 251.0
434.0 291.0
434.0 339.0
435.0 55.0
435.0 88.0
435.0 122.0
435.0 149.0
435.0 175.0
435.0 201.0
435.0 227.0
435.0 259.0
435.0 293.0
435.0 329.0
435.0 367.0
449.0 143.0
449.0 229.0
449.0 300.0
450.0 49.0
450.0 82.0
450.0 112.0
450.0 139.0
450.0 165.0
450.0 191.0
450.0 216.0
450.0 242.0
450.0 275.0
450.0 315.0
450.0 351.0
456.0 45.0
456.0 74.0
456.0 100.0
456.0 127.0
456.0 149.0
456.0 171.0
456.0 193.0
456.0 215.0
456.0 236.0
456.0 260.0
456.0 288.0
456.0 314.0
456.0 342.0
456.0 398.0
466.0 85.0
466.0 155.0
466.0 222.0
466.0 271.0
466.0 326.0
468.0 132.0
468.0 224.0
468.0 303.0
474.0 228.0
474.0 298.0
475.0 115.0
475.0 192.0
475.0 255.0
475.0 312.0
477.0 59.0
477.0 95.0
477.0 129.0
477.0 156.0
477.0 184.0
477.0 213.0
477.0 242.0
477.0 278.0
477.0 326.0
477.0 370.0
478.0 273.0
487.0 35.0
487.0 59.0
487.0 82.0
487.0 105.0
487.0 127.0
487.0 150.0
487.0 172.0
487.0 194.0
487.0 217.0
487.0 239.0
487.0 260.0
487.0 281.0
487.0 302.0
487.0 324.0
487.0 347.0
487.0 374.0
488.0 284.0
493.0 266.0
493.0 333.0
496.0 280.0
504.0 280.0
558.0 54.0
558.0 88.0
558.0 120.0
558.0 146.0
558.0 172.0
558.0 197.0
558.0 221.0
558.0 252.0
558.0 285.0
558.0 328.0
558.0 372.0
580.0 61.0
580.0 99.0
580.0 133.0
580.0 162.0
580.0 191.0
580.0 220.0
580.0 255.0
580.0 299.0
580.0 344.0
581.0 284.0
591.0 44.0
591.0 72.0
591.0 97.0
591.0 121.0
591.0 142.0
591.0 163.0
591.0 184.0
591.0 204.0
591.0 225.0
591.0 249.0
591.0 272.0
591.0 299.0
591.0 324.0
591.0 356.0
598.0 263.0
599.0 29.0
599.0 45.0
599.0 60.0
599.0 75.0
599.0 90.0
599.0 104.0
599.0 119.0
599.0 132.0
599.0 146.0
599.0 159.0
599.0 173.0
599.0 186.0
599.0 199.0
599.0 212.0
599.0 225.0
599.0 239.0
599.0 253.0
599.0 267.0
599.0 282.0
599.0 297.0
599.0 312.0
599.0 327.0
599.0 343.0
599.0 360.0
599.0 379.0
599.0 399.0
601.0 176.0
601.0 258.0
601.0 324.0
605.0 35.0
605.0 54.0
605.0 75.0
605.0 94.0
605.0 114.0
605.0 133.0
605.0 152.0
605.0 173.0
605.0 192.0
605.0 211.0
605.0 231.0
605.0 250.0
605.0 269.0
605.0 287.0
605.0 306.0
605.0 325.0
605.0 345.0
605.0 368.0
605.0 392.0
607.0 57.0
607.0 89.0
607.0 120.0
607.0 145.0
607.0 171.0
607.0 196.0
607.0 222.0
607.0 248.0
607.0 279.0
607.0 315.0
607.0 352.0
612.0 146.0
612.0 253.0
612.0 328.0
613.0 261.0
615.0 278.0
623.0 34.0
623.0 56.0
623.0 78.0
623.0 100.0
623.0 123.0
623.0 145.0
623.0 168.0
623.0 190.0
623.0 213.0
623.0 236.0
623.0 257.0
623.0 277.0
623.0 298.0
623.0 319.0
623.0 341.0
623.0 368.0
623.0 396.0
625.0 176.0
625.0 265.0
631.0 227.0
631.0 296.0
632.0 34.0
632.0 54.0
632.0 75.0
632.0 95.0
632.0 116.0
632.0 136.0
632.0 156.0
632.0 176.0
632.0 196.0
632.0 216.0
632.0 236.0
632.0 256.0
632.0 275.0
632.0 295.0
632.0 314.0
632.0 333.0
632.0 356.0
632.0 382.0
641.0 265.0
662.0 299.0
680.0 9.0
680.0 15.0
680.0 21.0
680.0 27.0
680.0 33.0
680.0 39.0
680.0 45.0
680.0 51.0
680.0 57.0
680.0 63.0
680.0 68.0
680.0 73.0
680.0 78.0
680.0 83.0
680.0 88.0
680.0 93.0
680.0 98.0
680.0 103.0
680.0 108.0
680.0 113.0
680.0 118.0
680.0 122.0
680.0 126.0
680.0 130.0
680.0 134.0
680.0 138.0
680.0 142.0
680.0 146.0
680.0 150.0
680.0 154.0
680.0 158.0
680.0 162.0
680.0 166.0
680.0 170.0
680.0 174.0
680.0 178.0
680.0 182.0
680.0 186.0
680.0 190.0
680.0 194.0
680.0 198.0
680.0 202.0
680.0 206.0
680.0 210.0
680.0 214.0
680.0 218.0
680.0 222.0
680.0 226.0
680.0 230.0
680.0 235.0
680.0 239.0
680.0 245.0
680.0 250.0
680.0 255.0
680.0 260.0
680.0 265.0
680.0 271.0
680.0 277.0
680.0 283.0
680.0 289.0
680.0 295.0
680.0 301.0
680.0 307.0
680.0 313.0
680.0 319.0
680.0 325.0
680.0 331.0
680.0 337.0
680.0 343.0
680.0 349.0
680.0 355.0
680.0 361.0
680.0 369.0
680.0 377.0
680.0 385.0
680.0 393.0
696.0 40.0
696.0 62.0
696.0 86.0
696.0 112.0
696.0 138.0
696.0 164.0
696.0 190.0
696.0 216.0
696.0 244.0
696.0 279.0
696.0 308.0
696.0 341.0
696.0 374.0
708.0 37.0
708.0 61.0
708.0 85.0
708.0 109.0
708.0 133.0
708.0 159.0
708.0 183.0
708.0 208.0
708.0 232.0
708.0 257.0
708.0 278.0
708.0 301.0
708.0 325.0
708.0 349.0
708.0 380.0
709.0 54.0
709.0 85.0
709.0 114.0
709.0 140.0
709.0 165.0
709.0 192.0
709.0 217.0
709.0 244.0
709.0 275.0
709.0 309.0
709.0 346.0
714.0 46.0
714.0 79.0
714.0 110.0
714.0 139.0
714.0 165.0
714.0 191.0
714.0 217.0
714.0 253.0
714.0 308.0
714.0 394.0
718.0 52.0
718.0 84.0
718.0 113.0
718.0 139.0
718.0 165.0
718.0 190.0
718.0 214.0
718.0 239.0
718.0 269.0
718.0 302.0
718.0 337.0
718.0 381.0
725.0 35.0
725.0 52.0
725.0 71.0
725.0 90.0
725.0 111.0
725.0 131.0
725.0 150.0
725.0 170.0
725.0 191.0
725.0 210.0
725.0 230.0
725.0 253.0
725.0 276.0
725.0 299.0
725.0 323.0
725.0 349.0
725.0 381.0
726.0 277.0
734.0 40.0
734.0 61.0
734.0 84.0
734.0 107.0
734.0 131.0
734.0 155.0
734.0 178.0
734.0 201.0
734.0 225.0
734.0 254.0
734.0 283.0
734.0 313.0
734.0 340.0
734.0 372.0
734.0 400.0
735.0 34.0
735.0 52.0
735.0 72.0
735.0 91.0
735.0 111.0
735.0 131.0
735.0 152.0
735.0 172.0
735.0 192.0
735.0 212.0
735.0 234.0
735.0 257.0
735.0 278.0
735.0 300.0
735.0 322.0
735.0 348.0
735.0 379.0
736.0 41.0
736.0 66.0
736.0 91.0
736.0 115.0
736.0 137.0
736.0 157.0
736.0 177.0
736.0 198.0
736.0 218.0
736.0 237.0
736.0 259.0
736.0 283.0
736.0 306.0
736.0 331.0
736.0 366.0
738.0 47.0
738.0 80.0
738.0 114.0
738.0 143.0
738.0 170.0
738.0 196.0
738.0 224.0
738.0 269.0
738.0 339.0
744.0 38.0
744.0 60.0
744.0 84.0
744.0 110.0
744.0 136.0
744.0 162.0
744.0 188.0
744.0 213.0
744.0 244.0
744.0 275.0
744.0 308.0
744.0 340.0
744.0 373.0
744.0 400.0
745.0 34.0
745.0 56.0
745.0 78.0
745.0 100.0
745.0 122.0
745.0 144.0
745.0 166.0
745.0 188.0
745.0 209.0
745.0 232.0
745.0 253.0
745.0 273.0
745.0 293.0
745.0 313.0
745.0 334.0
745.0 358.0
745.0 385.0
751.0 287.0
754.0 279.0
762.0 84.0
762.0 149.0
762.0 205.0
762.0 262.0
762.0 315.0
763.0 6.0
763.0 10.0
763.0 13.0
763.0 16.0
763.0 19.0
763.0 22.0
763.0 25.0
763.0 28.0
763.0 31.0
763.0 35.0
763.0 38.0
763.0 41.0
763.0 44.0
763.0 47.0
763.0 51.0
763.0 54.0
763.0 57.0
763.0 60.0
763.0 63.0
763.0 67.0
763.0 70.0
763.0 73.0
763.0 76.0
763.0 79.0
763.0 83.0
763.0 86.0
763.0 89.0
763.0 92.0
763.0 95.0
763.0 99.0
763.0 102.0
763.0 105.0
763.0 108.0
763.0 111.0
763.0 115.0
763.0 118.0
763.0 121.0
763.0 124.0
763.0 127.0
763.0 131.0
763.0 134.0
763.0 137.0
763.0 140.0
763.0 143.0
763.0 147.0
763.0 150.0
763.0 153.0
763.0 156.0
763.0 159.0
763.0 163.0
763.0 166.0
763.0 169.0
763.0 172.0
763.0 175.0
763.0 179.0
763.0 182.0
763.0 185.0
763.0 188.0
763.0 191.0
763.0 195.0
763.0 198.0
763.0 201.0
763.0 204.0
763.0 207.0
763.0 211.0
763.0 214.0
763.0 217.0
763.0 220.0
763.0 223.0
763.0 227.0
763.0 230.0
763.0 233.0
763.0 236.0
763.0 239.0
763.0 242.0
763.0 245.0
763.0 248.0
763.0 251.0
763.0 254.0
763.0 257.0
763.0 260.0
763.0 263.0
763.0 266.0
763.0 269.0
763.0 272.0
763.0 275.0
763.0 278.0
763.0 281.0
763.0 284.0
763.0 287.0
763.0 290.0
763.0 293.0
763.0 296.0
763.0 299.0
763.0 302.0
763.0 305.0
763.0 308.0
763.0 311.0
763.0 314.0
763.0 317.0
763.0 320.0
763.0 323.0
763.0 326.0
763.0 329.0
763.0 332.0
763.0 336.0
763.0 340.0
763.0 344.0
763.0 347.0
763.0 351.0
763.0 355.0
763.0 359.0
763.0 363.0
763.0 367.0
763.0 371.0
763.0 375.0
763.0 379.0
763.0 383.0
763.0 387.0
763.0 391.0
763.0 395.0
763.0 400.0
841.0 48.0
841.0 79.0
841.0 108.0
841.0 137.0
841.0 162.0
841.0 187.0
841.0 213.0
841.0 240.0
841.0 266.0
841.0 298.0
841.0 329.0
842.0 48.0
842.0 86.0
842.0 125.0
842.0 154.0
842.0 183.0
842.0 213.0
842.0 258.0
843.0 43.0
843.0 69.0
843.0 94.0
843.0 118.0
843.0 139.0
843.0 160.0
843.0 181.0
843.0 203.0
843.0 224.0
843.0 246.0
843.0 269.0
843.0 295.0
843.0 320.0
843.0 347.0
843.0 397.0
852.0 46.0
852.0 77.0
852.0 110.0
852.0 138.0
852.0 164.0
852.0 190.0
852.0 215.0
852.0 250.0
852.0 299.0
852.0 399.0
857.0 45.0
857.0 74.0
857.0 104.0
857.0 131.0
857.0 154.0
857.0 177.0
857.0 200.0
857.0 225.0
857.0 261.0
857.0 312.0
857.0 385.0
860.0 42.0
860.0 66.0
860.0 89.0
860.0 111.0
860.0 132.0
860.0 151.0
860.0 170.0
860.0 189.0
860.0 208.0
860.0 227.0
860.0 247.0
860.0 269.0
860.0 294.0
860.0 318.0
860.0 342.0
860.0 383.0
861.0 43.0
861.0 71.0
861.0 97.0
861.0 123.0
861.0 145.0
861.0 167.0
861.0 189.0
861.0 211.0
861.0 233.0
861.0 256.0
861.0 282.0
861.0 307.0
861.0 333.0
861.0 368.0
866.0 29.0
866.0 43.0
866.0 57.0
866.0 71.0
866.0 84.0
866.0 99.0
866.0 113.0
866.0 127.0
866.0 140.0
866.0 153.0
866.0 166.0
866.0 179.0
866.0 192.0
866.0 205.0
866.0 218.0
866.0 232.0
866.0 247.0
866.0 262.0
866.0 277.0
866.0 293.0
866.0 308.0
866.0 324.0
866.0 341.0
866.0 358.0
866.0 378.0
866.0 397.0
870.0 147.0
870.0 240.0
870.0 306.0
880.0 35.0
880.0 52.0
880.0 71.0
880.0 90.0
880.0 110.0
880.0 131.0
880.0 151.0
880.0 171.0
880.0 191.0
880.0 211.0
880.0 233.0
880.0 255.0
880.0 278.0
880.0 300.0
880.0 323.0
880.0 348.0
880.0 378.0
881.0 301.0
883.0 278.0
894.0 285.0
941.0 48.0
941.0 86.0
941.0 125.0
941.0 155.0
941.0 186.0
941.0 217.0
941.0 264.0
949.0 46.0
949.0 77.0
949.0 107.0
949.0 134.0
949.0 158.0
949.0 182.0
949.0 206.0
949.0 233.0
949.0 281.0
949.0 349.0
950.0 48.0
950.0 85.0
950.0 125.0
950.0 155.0
950.0 185.0
950.0 214.0
950.0 265.0
959.0 47.0
959.0 83.0
959.0 118.0
959.0 148.0
959.0 177.0
959.0 205.0
959.0 237.0
959.0 307.0
973.0 44.0
973.0 76.0
973.0 108.0
973.0 136.0
973.0 161.0
973.0 188.0
973.0 214.0
973.0 251.0
973.0 306.0
973.0 385.0
989.0 194.0
989.0 275.0
991.0 45.0
991.0 77.0
991.0 108.0
991.0 136.0
991.0 161.0
991.0 187.0
991.0 212.0
991.0 246.0
991.0 300.0
991.0 362.0
992.0 177.0
992.0 284.0
994.0 267.0
1001.0 33.0
1001.0 52.0
1001.0 74.0
1001.0 96.0
1001.0 119.0
1001.0 142.0
1001.0 164.0
1001.0 188.0
1001.0 211.0
1001.0 237.0
1001.0 262.0
1001.0 287.0
1001.0 312.0
1001.0 337.0
1001.0 376.0
1012.0 32.0
1012.0 50.0
1012.0 70.0
1012.0 91.0
1012.0 112.0
1012.0 134.0
1012.0 156.0
1012.0 177.0
1012.0 198.0
1012.0 220.0
1012.0 244.0
1012.0 267.0
1012.0 289.0
1012.0 312.0
1012.0 336.0
1012.0 367.0
1012.0 396.0
1014.0 276.0
1016.0 36.0
1016.0 55.0
1016.0 77.0
1016.0 100.0
1016.0 124.0
1016.0 147.0
1016.0 171.0
1016.0 194.0
1016.0 218.0
1016.0 245.0
1016.0 269.0
1016.0 293.0
1016.0 318.0
1016.0 347.0
1016.0 381.0
1018.0 273.0
1031.0 194.0
1031.0 269.0
1038.0 34.0
1038.0 52.0
1038.0 73.0
1038.0 93.0
1038.0 114.0
1038.0 135.0
1038.0 156.0
1038.0 177.0
1038.0 198.0
1038.0 219.0
1038.0 243.0
1038.0 267.0
1038.0 290.0
1038.0 314.0
1038.0 339.0
1038.0 374.0
1068.0 47.0
1068.0 79.0
1068.0 114.0
1068.0 142.0
1068.0 169.0
1068.0 196.0
1068.0 224.0
1068.0 269.0
1068.0 359.0
1075.0 46.0
1075.0 79.0
1075.0 114.0
1075.0 143.0
1075.0 171.0
1075.0 199.0
1075.0 228.0
1075.0 288.0
1087.0 48.0
1087.0 82.0
1087.0 117.0
1087.0 145.0
1087.0 173.0
1087.0 201.0
1087.0 230.0
1087.0 280.0
1088.0 48.0
1088.0 82.0
1088.0 118.0
1088.0 149.0
1088.0 179.0
1088.0 209.0
1088.0 259.0
1105.0 44.0
1105.0 73.0
1105.0 101.0
1105.0 128.0
1105.0 152.0
1105.0 176.0
1105.0 199.0
1105.0 223.0
1105.0 257.0
1105.0 306.0
1105.0 356.0
1114.0 45.0
1114.0 75.0
1114.0 104.0
1114.0 132.0
1114.0 156.0
1114.0 180.0
1114.0 204.0
1114.0 231.0
1114.0 271.0
1114.0 325.0
1114.0 392.0
1118.0 46.0
1118.0 80.0
1118.0 114.0
1118.0 144.0
1118.0 172.0
1118.0 200.0
1118.0 231.0
1118.0 288.0
1118.0 392.0
1134.0 142.0
1134.0 238.0
1134.0 305.0
1135.0 47.0
1135.0 87.0
1135.0 128.0
1135.0 159.0
1135.0 191.0
1135.0 224.0
1136.0 279.0
1148.0 254.0
1156.0 32.0
1156.0 50.0
1156.0 70.0
1156.0 92.0
1156.0 113.0
1156.0 135.0
1156.0 157.0
1156.0 178.0
1156.0 200.0
1156.0 222.0
1156.0 246.0
1156.0 268.0
1156.0 291.0
1156.0 314.0
1156.0 337.0
1156.0 367.0
1156.0 395.0
1165.0 33.0
1165.0 52.0
1165.0 74.0
1165.0 96.0
1165.0 120.0
1165.0 143.0
1165.0 166.0
1165.0 189.0
1165.0 211.0
1165.0 237.0
1165.0 263.0
1165.0 288.0
1165.0 314.0
1165.0 340.0
1165.0 374.0
1172.0 33.0
1172.0 51.0
1172.0 72.0
1172.0 93.0
1172.0 115.0
1172.0 138.0
1172.0 161.0
1172.0 183.0
1172.0 205.0
1172.0 228.0
1172.0 253.0
1172.0 278.0
1172.0 302.0
1172.0 327.0
1172.0 357.0
1172.0 389.0
1204.0 48.0
1204.0 83.0
1204.0 118.0
1204.0 147.0
1204.0 175.0
1204.0 203.0
1204.0 235.0
1222.0 46.0
1222.0 77.0
1222.0 109.0
1222.0 138.0
1222.0 164.0
1222.0 192.0
1222.0 218.0
1222.0 256.0
1222.0 316.0
1222.0 394.0
1226.0 44.0
1226.0 74.0
1226.0 104.0
1226.0 132.0
1226.0 156.0
1226.0 180.0
1226.0 204.0
1226.0 230.0
1226.0 266.0
1226.0 313.0
1226.0 382.0
1251.0 33.0
1251.0 51.0
1251.0 71.0
1251.0 92.0
1251.0 114.0
1251.0 135.0
1251.0 156.0
1251.0 178.0
1251.0 200.0
1251.0 223.0
1251.0 248.0
1251.0 272.0
1251.0 296.0
1251.0 319.0
1251.0 344.0
1251.0 377.0
1252.0 146.0
1252.0 255.0
1252.0 314.0
1253.0 34.0
1253.0 53.0
1253.0 75.0
1253.0 99.0
1253.0 123.0
1253.0 147.0
1253.0 171.0
1253.0 195.0
1253.0 220.0
1253.0 247.0
1253.0 272.0
1253.0 298.0
1253.0 325.0
1253.0 356.0
1253.0 388.0
1254.0 45.0
1254.0 79.0
1254.0 112.0
1254.0 141.0
1254.0 168.0
1254.0 196.0
1254.0 224.0
1254.0 268.0
1254.0 332.0
1337.0 45.0
1337.0 79.0
1337.0 114.0
1337.0 143.0
1337.0 171.0
1337.0 199.0
1337.0 229.0
1337.0 285.0
1337.0 395.0
1340.0 45.0
1340.0 79.0
1340.0 114.0
1340.0 143.0
1340.0 171.0
1340.0 198.0
1340.0 227.0
1340.0 277.0
1340.0 355.0
1345.0 46.0
1345.0 82.0
1345.0 119.0
1345.0 150.0
1345.0 178.0
1345.0 207.0
1345.0 245.0
1390.0 34.0
1390.0 53.0
1390.0 75.0
1390.0 97.0
1390.0 119.0
1390.0 141.0
1390.0 163.0
1390.0 185.0
1390.0 207.0
1390.0 230.0
1390.0 255.0
1390.0 280.0
1390.0 305.0
1390.0 330.0
1390.0 360.0
1390.0 391.0
1404.0 35.0
1404.0 54.0
1404.0 76.0
1404.0 98.0
1404.0 121.0
1404.0 144.0
1404.0 166.0
1404.0 189.0
1404.0 211.0
1404.0 237.0
1404.0 263.0
1404.0 288.0
1404.0 313.0
1404.0 338.0
1404.0 372.0
1417.0 48.0
1417.0 86.0
1417.0 125.0
1417.0 156.0
1417.0 188.0
1417.0 221.0
1418.0 47.0
1418.0 84.0
1418.0 120.0
1418.0 149.0
1418.0 177.0
1418.0 205.0
1418.0 241.0
1423.0 46.0
1423.0 83.0
1423.0 119.0
1423.0 149.0
1423.0 177.0
1423.0 205.0
1423.0 241.0
1442.0 6.0
1442.0 10.0
1442.0 14.0
1442.0 17.0
1442.0 21.0
1442.0 24.0
1442.0 28.0
1442.0 31.0
1442.0 34.0
1442.0 37.0
1442.0 40.0
1442.0 43.0
1442.0 46.0
1442.0 50.0
1442.0 54.0
1442.0 58.0
1442.0 61.0
1442.0 65.0
1442.0 69.0
1442.0 72.0
1442.0 76.0
1442.0 80.0
1442.0 84.0
1442.0 88.0
1442.0 92.0
1442.0 96.0
1442.0 100.0
1442.0 104.0
1442.0 108.0
1442.0 112.0
1442.0 116.0
1442.0 120.0
1442.0 124.0
1442.0 128.0
1442.0 132.0
1442.0 136.0
1442.0 140.0
1442.0 144.0
1442.0 148.0
1442.0 152.0
1442.0 156.0
1442.0 160.0
1442.0 164.0
1442.0 168.0
1442.0 172.0
1442.0 176.0
1442.0 180.0
1442.0 184.0
1442.0 188.0
1442.0 192.0
1442.0 196.0
1442.0 200.0
1442.0 204.0
1442.0 208.0
1442.0 212.0
1442.0 217.0
1442.0 221.0
1442.0 227.0
1442.0 232.0
1442.0 237.0
1442.0 242.0
1442.0 247.0
1442.0 252.0
1442.0 257.0
1442.0 262.0
1442.0 267.0
1442.0 272.0
1442.0 277.0
1442.0 282.0
1442.0 287.0
1442.0 292.0
1442.0 297.0
1442.0 302.0
1442.0 307.0
1442.0 312.0
1442.0 317.0
1442.0 322.0
1442.0 327.0
1442.0 332.0
1442.0 337.0
1442.0 342.0
1442.0 347.0
1442.0 352.0
1442.0 357.0
1442.0 362.0
1442.0 367.0
1442.0 372.0
1442.0 376.0
1442.0 380.0
1442.0 384.0
1442.0 388.0
1442.0 392.0
1442.0 400.0
