14.0 56.0
14.0 91.0
14.0 126.0
14.0 161.0
14.0 196.0
14.0 231.0
14.0 274.0
14.0 318.0
26.0 7.0
26.0 12.0
26.0 16.0
26.0 20.0
26.0 24.0
26.0 28.0
26.0 32.0
26.0 36.0
26.0 40.0
26.0 44.0
26.0 48.0
26.0 52.0
26.0 56.0
26.0 60.0
26.0 64.0
26.0 68.0
26.0 72.0
26.0 76.0
26.0 80.0
26.0 84.0
26.0 88.0
26.0 92.0
26.0 96.0
26.0 100.0
26.0 104.0
26.0 108.0
26.0 112.0
26.0 116.0
26.0 120.0
26.0 124.0
26.0 128.0
26.0 132.0
26.0 136.0
26.0 140.0
26.0 144.0
26.0 148.0
26.0 152.0
26.0 156.0
26.0 160.0
26.0 164.0
26.0 168.0
26.0 172.0
26.0 176.0
26.0 180.0
26.0 184.0
26.0 188.0
26.0 192.0
26.0 196.0
26.0 200.0
26.0 204.0
26.0 208.0
26.0 212.0
26.0 216.0
26.0 220.0
26.0 224.0
26.0 228.0
26.0 232.0
26.0 236.0
26.0 240.0
26.0 244.0
26.0 248.0
26.0 252.0
26.0 256.0
26.0 260.0
26.0 264.0
26.0 268.0
26.0 272.0
26.0 276.0
26.0 280.0
26.0 284.0
26.0 288.0
26.0 292.0
26.0 296.0
26.0 300.0
26.0 304.0
26.0 308.0
26.0 312.0
26.0 316.0
26.0 320.0
26.0 324.0
26.0 328.0
26.0 333.0
26.0 337.0
26.0 343.0
26.0 348.0
26.0 353.0
26.0 358.0
26.0 363.0
26.0 369.0
26.0 375.0
26.0 381.0
26.0 387.0
26.0 393.0
62.0 57.0
62.0 91.0
62.0 125.0
62.0 161.0
62.0 196.0
62.0 231.0
62.0 274.0
62.0 315.0
87.0 58.0
87.0 96.0
87.0 131.0
87.0 167.0
87.0 202.0
87.0 239.0
87.0 282.0
87.0 327.0
112.0 42.0
112.0 68.0
112.0 95.0
112.0 122.0
112.0 149.0
112.0 175.0
112.0 202.0
112.0 229.0
112.0 255.0
112.0 282.0
112.0 307.0
112.0 334.0
129.0 43.0
129.0 71.0
129.0 99.0
129.0 127.0
129.0 155.0
129.0 183.0
129.0 211.0
129.0 239.0
129.0 267.0
129.0 295.0
129.0 323.0
129.0 357.0
157.0 58.0
157.0 94.0
157.0 130.0
157.0 166.0
157.0 202.0
157.0 239.0
157.0 284.0
157.0 328.0
159.0 58.0
159.0 94.0
159.0 130.0
159.0 165.0
159.0 200.0
159.0 236.0
159.0 278.0
159.0 322.0
165.0 65.0
165.0 110.0
165.0 155.0
165.0 198.0
165.0 250.0
165.0 309.0
166.0 57.0
166.0 93.0
166.0 129.0
166.0 165.0
166.0 201.0
166.0 238.0
166.0 284.0
166.0 329.0
167.0 59.0
167.0 97.0
167.0 134.0
167.0 170.0
167.0 206.0
167.0 247.0
167.0 291.0
167.0 338.0
185.0 55.0
185.0 88.0
185.0 120.0
185.0 152.0
185.0 185.0
185.0 219.0
185.0 255.0
185.0 296.0
185.0 338.0
217.0 42.0
217.0 69.0
217.0 96.0
217.0 123.0
217.0 151.0
217.0 178.0
217.0 205.0
217.0 233.0
217.0 260.0
217.0 288.0
217.0 316.0
217.0 346.0
224.0 43.0
224.0 69.0
224.0 94.0
224.0 119.0
224.0 143.0
224.0 167.0
224.0 192.0
224.0 217.0
224.0 242.0
224.0 267.0
224.0 293.0
224.0 318.0
224.0 345.0
227.0 43.0
227.0 72.0
227.0 101.0
227.0 129.0
227.0 158.0
227.0 187.0
227.0 217.0
227.0 246.0
227.0 275.0
227.0 304.0
227.0 333.0
232.0 43.0
232.0 67.0
232.0 92.0
232.0 116.0
232.0 140.0
232.0 164.0
232.0 189.0
232.0 214.0
232.0 239.0
232.0 263.0
232.0 287.0
232.0 311.0
232.0 336.0
241.0 43.0
241.0 69.0
241.0 94.0
241.0 119.0
241.0 144.0
241.0 168.0
241.0 193.0
241.0 218.0
241.0 244.0
241.0 270.0
241.0 296.0
241.0 321.0
241.0 348.0
258.0 45.0
258.0 73.0
258.0 101.0
258.0 129.0
258.0 157.0
258.0 185.0
258.0 213.0
258.0 241.0
258.0 269.0
258.0 297.0
258.0 325.0
258.0 369.0
259.0 44.0
259.0 73.0
259.0 101.0
259.0 129.0
259.0 157.0
259.0 185.0
259.0 213.0
259.0 241.0
259.0 269.0
259.0 298.0
259.0 327.0
286.0 56.0
286.0 90.0
286.0 124.0
286.0 159.0
286.0 194.0
286.0 230.0
286.0 274.0
286.0 315.0
296.0 54.0
296.0 85.0
296.0 114.0
296.0 143.0
296.0 173.0
296.0 203.0
296.0 234.0
296.0 270.0
296.0 306.0
296.0 343.0
303.0 56.0
303.0 86.0
303.0 117.0
303.0 147.0
303.0 177.0
303.0 207.0
303.0 238.0
303.0 274.0
303.0 310.0
306.0 59.0
306.0 94.0
306.0 129.0
306.0 164.0
306.0 199.0
306.0 236.0
306.0 280.0
306.0 321.0
328.0 42.0
328.0 71.0
328.0 99.0
328.0 127.0
328.0 156.0
328.0 184.0
328.0 212.0
328.0 240.0
328.0 268.0
328.0 295.0
328.0 324.0
328.0 367.0
334.0 43.0
334.0 71.0
334.0 99.0
334.0 126.0
334.0 152.0
334.0 178.0
334.0 204.0
334.0 230.0
334.0 256.0
334.0 281.0
334.0 307.0
334.0 334.0
347.0 32.0
347.0 50.0
347.0 65.0
347.0 81.0
347.0 97.0
347.0 112.0
347.0 128.0
347.0 144.0
347.0 160.0
347.0 176.0
347.0 192.0
347.0 208.0
347.0 224.0
347.0 240.0
347.0 257.0
347.0 273.0
347.0 290.0
347.0 307.0
347.0 323.0
347.0 341.0
347.0 365.0
366.0 44.0
366.0 69.0
366.0 96.0
366.0 124.0
366.0 152.0
366.0 177.0
366.0 204.0
366.0 230.0
366.0 254.0
366.0 280.0
366.0 305.0
366.0 330.0
382.0 45.0
382.0 75.0
382.0 105.0
382.0 134.0
382.0 164.0
382.0 193.0
382.0 223.0
382.0 253.0
382.0 282.0
382.0 312.0
382.0 343.0
428.0 59.0
428.0 94.0
428.0 130.0
428.0 164.0
428.0 199.0
428.0 235.0
428.0 276.0
428.0 318.0
434.0 61.0
434.0 100.0
434.0 137.0
434.0 175.0
434.0 210.0
434.0 254.0
434.0 298.0
435.0 54.0
435.0 89.0
435.0 125.0
435.0 160.0
435.0 194.0
435.0 229.0
435.0 270.0
435.0 309.0
450.0 53.0
450.0 85.0
450.0 117.0
450.0 149.0
450.0 180.0
450.0 211.0
450.0 245.0
450.0 282.0
450.0 319.0
456.0 60.0
456.0 95.0
456.0 131.0
456.0 166.0
456.0 202.0
456.0 238.0
456.0 279.0
456.0 321.0
477.0 57.0
477.0 93.0
477.0 131.0
477.0 166.0
477.0 201.0
477.0 238.0
477.0 285.0
477.0 329.0
487.0 43.0
487.0 70.0
487.0 98.0
487.0 127.0
487.0 155.0
487.0 183.0
487.0 210.0
487.0 237.0
487.0 265.0
487.0 292.0
487.0 319.0
487.0 353.0
558.0 58.0
558.0 92.0
558.0 126.0
558.0 158.0
558.0 189.0
558.0 222.0
558.0 263.0
558.0 303.0
580.0 58.0
580.0 98.0
580.0 137.0
580.0 174.0
580.0 210.0
580.0 253.0
580.0 301.0
591.0 57.0
591.0 89.0
591.0 122.0
591.0 154.0
591.0 185.0
591.0 217.0
591.0 254.0
591.0 295.0
591.0 337.0
599.0 33.0
599.0 52.0
599.0 69.0
599.0 86.0
599.0 102.0
599.0 118.0
599.0 135.0
599.0 151.0
599.0 168.0
599.0 184.0
599.0 201.0
599.0 217.0
599.0 234.0
599.0 250.0
599.0 268.0
599.0 285.0
599.0 302.0
599.0 320.0
599.0 337.0
599.0 362.0
599.0 398.0
605.0 42.0
605.0 66.0
605.0 90.0
605.0 114.0
605.0 137.0
605.0 162.0
605.0 186.0
605.0 210.0
605.0 236.0
605.0 261.0
605.0 285.0
605.0 310.0
605.0 333.0
607.0 56.0
607.0 89.0
607.0 121.0
607.0 156.0
607.0 189.0
607.0 221.0
607.0 258.0
607.0 301.0
607.0 339.0
623.0 43.0
623.0 70.0
623.0 98.0
623.0 126.0
623.0 154.0
623.0 182.0
623.0 210.0
623.0 238.0
623.0 266.0
623.0 294.0
623.0 322.0
623.0 357.0
632.0 42.0
632.0 67.0
632.0 94.0
632.0 120.0
632.0 144.0
632.0 169.0
632.0 194.0
632.0 219.0
632.0 243.0
632.0 268.0
632.0 292.0
632.0 318.0
632.0 344.0
680.0 9.0
680.0 15.0
680.0 21.0
680.0 27.0
680.0 33.0
680.0 39.0
680.0 45.0
680.0 50.0
680.0 55.0
680.0 60.0
680.0 65.0
680.0 70.0
680.0 75.0
680.0 80.0
680.0 85.0
680.0 90.0
680.0 95.0
680.0 100.0
680.0 105.0
680.0 110.0
680.0 115.0
680.0 120.0
680.0 125.0
680.0 130.0
680.0 135.0
680.0 140.0
680.0 145.0
680.0 150.0
680.0 155.0
680.0 160.0
680.0 165.0
680.0 170.0
680.0 175.0
680.0 180.0
680.0 185.0
680.0 190.0
680.0 195.0
680.0 200.0
680.0 205.0
680.0 210.0
680.0 215.0
680.0 220.0
680.0 225.0
680.0 231.0
680.0 237.0
680.0 243.0
680.0 249.0
680.0 255.0
680.0 261.0
680.0 267.0
680.0 273.0
680.0 279.0
680.0 285.0
680.0 291.0
680.0 297.0
680.0 303.0
680.0 309.0
680.0 315.0
680.0 321.0
680.0 327.0
680.0 333.0
680.0 339.0
680.0 347.0
680.0 355.0
680.0 363.0
680.0 371.0
680.0 379.0
680.0 389.0
696.0 58.0
696.0 95.0
696.0 126.0
696.0 154.0
696.0 180.0
696.0 207.0
696.0 234.0
696.0 260.0
696.0 286.0
696.0 311.0
696.0 336.0
696.0 367.0
708.0 47.0
708.0 78.0
708.0 110.0
708.0 142.0
708.0 174.0
708.0 206.0
708.0 236.0
708.0 267.0
708.0 298.0
708.0 330.0
709.0 59.0
709.0 93.0
709.0 128.0
709.0 162.0
709.0 194.0
709.0 226.0
709.0 266.0
709.0 305.0
709.0 345.0
714.0 86.0
714.0 126.0
714.0 159.0
714.0 192.0
714.0 226.0
714.0 262.0
714.0 298.0
714.0 334.0
718.0 54.0
718.0 85.0
718.0 115.0
718.0 146.0
718.0 178.0
718.0 210.0
718.0 243.0
718.0 279.0
718.0 315.0
725.0 59.0
725.0 94.0
725.0 122.0
725.0 147.0
725.0 172.0
725.0 195.0
725.0 219.0
725.0 243.0
725.0 267.0
725.0 291.0
725.0 315.0
725.0 338.0
725.0 367.0
734.0 59.0
734.0 94.0
734.0 123.0
734.0 147.0
734.0 171.0
734.0 195.0
734.0 220.0
734.0 244.0
734.0 268.0
734.0 292.0
734.0 315.0
734.0 340.0
734.0 371.0
735.0 57.0
735.0 90.0
735.0 118.0
735.0 143.0
735.0 169.0
735.0 194.0
735.0 219.0
735.0 244.0
735.0 269.0
735.0 293.0
735.0 317.0
735.0 341.0
735.0 372.0
736.0 56.0
736.0 87.0
736.0 119.0
736.0 151.0
736.0 181.0
736.0 211.0
736.0 244.0
736.0 280.0
736.0 316.0
738.0 87.0
738.0 127.0
738.0 162.0
738.0 196.0
738.0 231.0
738.0 269.0
738.0 306.0
738.0 346.0
744.0 59.0
744.0 95.0
744.0 126.0
744.0 154.0
744.0 182.0
744.0 210.0
744.0 238.0
744.0 264.0
744.0 289.0
744.0 314.0
744.0 340.0
744.0 371.0
745.0 43.0
745.0 70.0
745.0 98.0
745.0 126.0
745.0 154.0
745.0 182.0
745.0 210.0
745.0 238.0
745.0 266.0
745.0 294.0
745.0 322.0
745.0 359.0
763.0 7.0
763.0 12.0
763.0 16.0
763.0 20.0
763.0 24.0
763.0 28.0
763.0 32.0
763.0 36.0
763.0 40.0
763.0 44.0
763.0 48.0
763.0 52.0
763.0 56.0
763.0 60.0
763.0 64.0
763.0 68.0
763.0 72.0
763.0 76.0
763.0 80.0
763.0 84.0
763.0 88.0
763.0 92.0
763.0 96.0
763.0 100.0
763.0 104.0
763.0 108.0
763.0 112.0
763.0 116.0
763.0 120.0
763.0 124.0
763.0 128.0
763.0 132.0
763.0 136.0
763.0 140.0
763.0 144.0
763.0 148.0
763.0 152.0
763.0 156.0
763.0 160.0
763.0 164.0
763.0 168.0
763.0 172.0
763.0 176.0
763.0 180.0
763.0 184.0
763.0 188.0
763.0 192.0
763.0 196.0
763.0 200.0
763.0 204.0
763.0 208.0
763.0 212.0
763.0 216.0
763.0 220.0
763.0 224.0
763.0 228.0
763.0 232.0
763.0 236.0
763.0 240.0
763.0 244.0
763.0 248.0
763.0 252.0
763.0 256.0
763.0 260.0
763.0 264.0
763.0 268.0
763.0 272.0
763.0 276.0
763.0 280.0
763.0 284.0
763.0 288.0
763.0 292.0
763.0 296.0
763.0 300.0
763.0 304.0
763.0 308.0
763.0 312.0
763.0 316.0
763.0 320.0
763.0 324.0
763.0 328.0
763.0 332.0
763.0 336.0
763.0 340.0
763.0 345.0
763.0 349.0
763.0 355.0
763.0 361.0
763.0 367.0
763.0 373.0
763.0 379.0
763.0 385.0
763.0 391.0
841.0 59.0
841.0 99.0
841.0 142.0
841.0 183.0
841.0 223.0
841.0 289.0
841.0 342.0
842.0 95.0
842.0 135.0
842.0 173.0
842.0 210.0
842.0 258.0
842.0 301.0
842.0 346.0
843.0 55.0
843.0 86.0
843.0 118.0
843.0 150.0
843.0 183.0
843.0 214.0
843.0 247.0
843.0 283.0
843.0 320.0
852.0 90.0
852.0 129.0
852.0 162.0
852.0 195.0
852.0 230.0
852.0 268.0
852.0 303.0
852.0 340.0
857.0 84.0
857.0 121.0
857.0 151.0
857.0 181.0
857.0 210.0
857.0 241.0
857.0 273.0
857.0 305.0
857.0 336.0
857.0 386.0
860.0 55.0
860.0 85.0
860.0 115.0
860.0 144.0
860.0 174.0
860.0 204.0
860.0 233.0
860.0 267.0
860.0 300.0
860.0 332.0
861.0 55.0
861.0 89.0
861.0 124.0
861.0 157.0
861.0 190.0
861.0 224.0
861.0 266.0
861.0 305.0
861.0 345.0
866.0 37.0
866.0 57.0
866.0 76.0
866.0 94.0
866.0 111.0
866.0 127.0
866.0 142.0
866.0 158.0
866.0 173.0
866.0 189.0
866.0 205.0
866.0 221.0
866.0 237.0
866.0 254.0
866.0 270.0
866.0 287.0
866.0 303.0
866.0 319.0
866.0 335.0
866.0 352.0
866.0 374.0
866.0 398.0
880.0 58.0
880.0 91.0
880.0 119.0
880.0 144.0
880.0 167.0
880.0 191.0
880.0 216.0
880.0 242.0
880.0 267.0
880.0 291.0
880.0 315.0
880.0 338.0
880.0 366.0
941.0 103.0
941.0 143.0
941.0 182.0
941.0 219.0
941.0 262.0
941.0 303.0
941.0 351.0
949.0 85.0
949.0 123.0
949.0 154.0
949.0 184.0
949.0 214.0
949.0 247.0
949.0 281.0
949.0 315.0
949.0 351.0
950.0 94.0
950.0 138.0
950.0 178.0
950.0 218.0
950.0 264.0
950.0 306.0
950.0 351.0
959.0 90.0
959.0 130.0
959.0 166.0
959.0 201.0
959.0 241.0
959.0 279.0
959.0 320.0
973.0 85.0
973.0 124.0
973.0 156.0
973.0 189.0
973.0 224.0
973.0 263.0
973.0 300.0
973.0 337.0
991.0 85.0
991.0 125.0
991.0 160.0
991.0 192.0
991.0 225.0
991.0 263.0
991.0 298.0
991.0 332.0
991.0 386.0
1001.0 64.0
1001.0 103.0
1001.0 133.0
1001.0 161.0
1001.0 189.0
1001.0 218.0
1001.0 248.0
1001.0 275.0
1001.0 301.0
1001.0 328.0
1001.0 357.0
1012.0 56.0
1012.0 91.0
1012.0 120.0
1012.0 147.0
1012.0 173.0
1012.0 199.0
1012.0 225.0
1012.0 251.0
1012.0 276.0
1012.0 301.0
1012.0 326.0
1012.0 353.0
1012.0 396.0
1016.0 63.0
1016.0 103.0
1016.0 134.0
1016.0 163.0
1016.0 191.0
1016.0 219.0
1016.0 247.0
1016.0 274.0
1016.0 301.0
1016.0 328.0
1016.0 357.0
1038.0 59.0
1038.0 96.0
1038.0 127.0
1038.0 154.0
1038.0 181.0
1038.0 208.0
1038.0 235.0
1038.0 261.0
1038.0 287.0
1038.0 313.0
1038.0 339.0
1038.0 374.0
1068.0 90.0
1068.0 130.0
1068.0 164.0
1068.0 198.0
1068.0 234.0
1068.0 272.0
1068.0 311.0
1068.0 352.0
1075.0 90.0
1075.0 130.0
1075.0 166.0
1075.0 202.0
1075.0 241.0
1075.0 280.0
1075.0 319.0
1075.0 378.0
1087.0 94.0
1087.0 133.0
1087.0 169.0
1087.0 204.0
1087.0 241.0
1087.0 280.0
1087.0 318.0
1087.0 369.0
1088.0 99.0
1088.0 138.0
1088.0 175.0
1088.0 213.0
1088.0 256.0
1088.0 297.0
1088.0 339.0
1105.0 75.0
1105.0 111.0
1105.0 140.0
1105.0 170.0
1105.0 200.0
1105.0 229.0
1105.0 260.0
1105.0 291.0
1105.0 323.0
1105.0 357.0
1114.0 82.0
1114.0 120.0
1114.0 151.0
1114.0 180.0
1114.0 210.0
1114.0 243.0
1114.0 278.0
1114.0 314.0
1114.0 348.0
1118.0 88.0
1118.0 130.0
1118.0 165.0
1118.0 200.0
1118.0 237.0
1118.0 275.0
1118.0 315.0
1118.0 364.0
1135.0 107.0
1135.0 148.0
1135.0 187.0
1135.0 227.0
1135.0 270.0
1135.0 315.0
1156.0 56.0
1156.0 93.0
1156.0 123.0
1156.0 151.0
1156.0 179.0
1156.0 207.0
1156.0 234.0
1156.0 260.0
1156.0 286.0
1156.0 312.0
1156.0 338.0
1156.0 372.0
1165.0 57.0
1165.0 95.0
1165.0 125.0
1165.0 153.0
1165.0 182.0
1165.0 211.0
1165.0 239.0
1165.0 267.0
1165.0 295.0
1165.0 321.0
1165.0 348.0
1165.0 390.0
1172.0 57.0
1172.0 95.0
1172.0 125.0
1172.0 153.0
1172.0 181.0
1172.0 209.0
1172.0 237.0
1172.0 264.0
1172.0 290.0
1172.0 316.0
1172.0 343.0
1172.0 381.0
1204.0 91.0
1204.0 131.0
1204.0 166.0
1204.0 201.0
1204.0 237.0
1204.0 279.0
1204.0 320.0
1222.0 88.0
1222.0 126.0
1222.0 158.0
1222.0 189.0
1222.0 221.0
1222.0 259.0
1222.0 293.0
1222.0 327.0
1222.0 380.0
1226.0 79.0
1226.0 117.0
1226.0 146.0
1226.0 176.0
1226.0 206.0
1226.0 237.0
1226.0 271.0
1226.0 305.0
1226.0 339.0
1251.0 60.0
1251.0 96.0
1251.0 126.0
1251.0 154.0
1251.0 182.0
1251.0 210.0
1251.0 238.0
1251.0 263.0
1251.0 288.0
1251.0 314.0
1251.0 340.0
1251.0 374.0
1253.0 66.0
1253.0 105.0
1253.0 136.0
1253.0 166.0
1253.0 196.0
1253.0 225.0
1253.0 254.0
1253.0 282.0
1253.0 310.0
1253.0 338.0
1253.0 379.0
1254.0 88.0
1254.0 127.0
1254.0 161.0
1254.0 195.0
1254.0 228.0
1254.0 267.0
1254.0 307.0
1254.0 346.0
1337.0 88.0
1337.0 127.0
1337.0 161.0
1337.0 196.0
1337.0 231.0
1337.0 268.0
1337.0 304.0
1337.0 342.0
1340.0 92.0
1340.0 131.0
1340.0 166.0
1340.0 200.0
1340.0 236.0
1340.0 273.0
1340.0 312.0
1340.0 349.0
1345.0 92.0
1345.0 132.0
1345.0 167.0
1345.0 202.0
1345.0 242.0
1345.0 284.0
1345.0 324.0
1345.0 387.0
1390.0 62.0
1390.0 98.0
1390.0 127.0
1390.0 155.0
1390.0 183.0
1390.0 211.0
1390.0 239.0
1390.0 265.0
1390.0 291.0
1390.0 318.0
1390.0 344.0
1390.0 380.0
1404.0 62.0
1404.0 99.0
1404.0 130.0
1404.0 158.0
1404.0 186.0
1404.0 214.0
1404.0 242.0
1404.0 268.0
1404.0 294.0
1404.0 320.0
1404.0 346.0
1404.0 386.0
1417.0 98.0
1417.0 141.0
1417.0 181.0
1417.0 221.0
1417.0 267.0
1417.0 316.0
1418.0 93.0
1418.0 133.0
1418.0 169.0
1418.0 205.0
1418.0 244.0
1418.0 286.0
1418.0 327.0
1423.0 93.0
1423.0 132.0
1423.0 168.0
1423.0 204.0
1423.0 243.0
1423.0 284.0
1423.0 325.0
1423.0 388.0
1442.0 9.0
1442.0 15.0
1442.0 21.0
1442.0 27.0
1442.0 33.0
1442.0 39.0
1442.0 45.0
1442.0 51.0
1442.0 57.0
1442.0 63.0
1442.0 69.0
1442.0 74.0
1442.0 79.0
1442.0 84.0
1442.0 89.0
1442.0 94.0
1442.0 99.0
1442.0 104.0
1442.0 108.0
1442.0 112.0
1442.0 116.0
1442.0 120.0
1442.0 124.0
1442.0 128.0
1442.0 132.0
1442.0 136.0
1442.0 140.0
1442.0 144.0
1442.0 148.0
1442.0 152.0
1442.0 156.0
1442.0 160.0
1442.0 164.0
1442.0 168.0
1442.0 172.0
1442.0 176.0
1442.0 180.0
1442.0 184.0
1442.0 188.0
1442.0 192.0
1442.0 196.0
1442.0 200.0
1442.0 204.0
1442.0 208.0
1442.0 212.0
1442.0 216.0
1442.0 220.0
1442.0 224.0
1442.0 228.0
1442.0 232.0
1442.0 236.0
1442.0 240.0
1442.0 244.0
1442.0 248.0
1442.0 251.0
1442.0 255.0
1442.0 259.0
1442.0 262.0
1442.0 266.0
1442.0 270.0
1442.0 274.0
1442.0 278.0
1442.0 281.0
1442.0 285.0
1442.0 289.0
1442.0 292.0
1442.0 296.0
1442.0 300.0
1442.0 304.0
1442.0 308.0
1442.0 311.0
1442.0 315.0
1442.0 319.0
1442.0 322.0
1442.0 326.0
1442.0 330.0
1442.0 334.0
1442.0 338.0
1442.0 341.0
1442.0 345.0
1442.0 349.0
1442.0 352.0
1442.0 356.0
1442.0 360.0
1442.0 364.0
1442.0 368.0
1442.0 372.0
1442.0 376.0
1442.0 380.0
1442.0 384.0
1442.0 388.0
1442.0 392.0
1442.0 396.0
