232.0 386.0
235.0 376.0
241.0 364.0
334.0 371.0
347.0 48.0
347.0 83.0
347.0 119.0
347.0 150.0
347.0 179.0
347.0 207.0
347.0 235.0
347.0 262.0
347.0 288.0
347.0 311.0
347.0 332.0
347.0 353.0
347.0 374.0
347.0 395.0
366.0 383.0
383.0 391.0
456.0 47.0
456.0 81.0
456.0 115.0
456.0 145.0
456.0 173.0
456.0 201.0
456.0 229.0
456.0 256.0
456.0 282.0
456.0 307.0
456.0 328.0
456.0 349.0
456.0 370.0
456.0 391.0
466.0 354.0
475.0 351.0
478.0 367.0
493.0 383.0
591.0 46.0
591.0 76.0
591.0 107.0
591.0 137.0
591.0 162.0
591.0 186.0
591.0 210.0
591.0 234.0
591.0 257.0
591.0 281.0
591.0 304.0
591.0 324.0
591.0 345.0
591.0 364.0
591.0 384.0
599.0 48.0
599.0 81.0
599.0 115.0
599.0 147.0
599.0 175.0
599.0 203.0
599.0 230.0
599.0 257.0
599.0 282.0
599.0 307.0
599.0 329.0
599.0 350.0
599.0 371.0
599.0 392.0
601.0 396.0
605.0 372.0
612.0 345.0
613.0 389.0
625.0 332.0
632.0 387.0
680.0 7.0
680.0 13.0
680.0 18.0
680.0 23.0
680.0 28.0
680.0 33.0
680.0 38.0
680.0 43.0
680.0 48.0
680.0 53.0
680.0 58.0
680.0 63.0
680.0 68.0
680.0 73.0
680.0 78.0
680.0 83.0
680.0 88.0
680.0 93.0
680.0 98.0
680.0 103.0
680.0 108.0
680.0 113.0
680.0 118.0
680.0 123.0
680.0 128.0
680.0 132.0
680.0 136.0
680.0 140.0
680.0 144.0
680.0 148.0
680.0 152.0
680.0 156.0
680.0 160.0
680.0 164.0
680.0 168.0
680.0 172.0
680.0 176.0
680.0 180.0
680.0 184.0
680.0 188.0
680.0 192.0
680.0 196.0
680.0 200.0
680.0 204.0
680.0 208.0
680.0 212.0
680.0 216.0
680.0 220.0
680.0 224.0
680.0 228.0
680.0 232.0
680.0 236.0
680.0 240.0
680.0 244.0
680.0 248.0
680.0 252.0
680.0 256.0
680.0 260.0
680.0 264.0
680.0 268.0
680.0 272.0
680.0 276.0
680.0 280.0
680.0 284.0
680.0 288.0
680.0 292.0
680.0 296.0
680.0 300.0
680.0 304.0
680.0 308.0
680.0 312.0
680.0 316.0
680.0 320.0
680.0 324.0
680.0 328.0
680.0 332.0
680.0 336.0
680.0 340.0
680.0 344.0
680.0 348.0
680.0 352.0
680.0 356.0
680.0 360.0
680.0 364.0
680.0 368.0
680.0 372.0
680.0 376.0
680.0 380.0
680.0 384.0
680.0 388.0
680.0 392.0
680.0 400.0
714.0 47.0
714.0 70.0
714.0 94.0
714.0 118.0
714.0 141.0
714.0 161.0
714.0 181.0
714.0 202.0
714.0 222.0
714.0 242.0
714.0 262.0
714.0 282.0
714.0 302.0
714.0 322.0
714.0 342.0
714.0 362.0
714.0 382.0
719.0 143.0
719.0 230.0
719.0 308.0
719.0 373.0
725.0 40.0
725.0 59.0
725.0 79.0
725.0 99.0
725.0 119.0
725.0 138.0
725.0 158.0
725.0 177.0
725.0 198.0
725.0 217.0
725.0 237.0
725.0 256.0
725.0 275.0
725.0 294.0
725.0 311.0
725.0 327.0
725.0 344.0
725.0 360.0
725.0 376.0
725.0 393.0
726.0 337.0
729.0 158.0
729.0 253.0
729.0 365.0
734.0 343.0
735.0 39.0
735.0 59.0
735.0 79.0
735.0 100.0
735.0 120.0
735.0 141.0
735.0 160.0
735.0 179.0
735.0 200.0
735.0 220.0
735.0 239.0
735.0 259.0
735.0 278.0
735.0 298.0
735.0 315.0
735.0 331.0
735.0 349.0
735.0 365.0
735.0 380.0
735.0 397.0
736.0 44.0
736.0 76.0
736.0 109.0
736.0 142.0
736.0 170.0
736.0 195.0
736.0 222.0
736.0 248.0
736.0 274.0
736.0 298.0
736.0 319.0
736.0 341.0
736.0 362.0
736.0 382.0
738.0 49.0
738.0 75.0
738.0 100.0
738.0 127.0
738.0 150.0
738.0 172.0
738.0 194.0
738.0 216.0
738.0 238.0
738.0 260.0
738.0 282.0
738.0 304.0
738.0 326.0
738.0 347.0
738.0 370.0
738.0 392.0
744.0 331.0
754.0 375.0
762.0 371.0
763.0 6.0
763.0 10.0
763.0 14.0
763.0 18.0
763.0 22.0
763.0 25.0
763.0 29.0
763.0 33.0
763.0 36.0
763.0 40.0
763.0 44.0
763.0 48.0
763.0 52.0
763.0 55.0
763.0 59.0
763.0 63.0
763.0 67.0
763.0 71.0
763.0 75.0
763.0 79.0
763.0 83.0
763.0 87.0
763.0 91.0
763.0 95.0
763.0 99.0
763.0 103.0
763.0 107.0
763.0 111.0
763.0 115.0
763.0 119.0
763.0 123.0
763.0 127.0
763.0 131.0
763.0 135.0
763.0 139.0
763.0 143.0
763.0 147.0
763.0 151.0
763.0 155.0
763.0 159.0
763.0 163.0
763.0 167.0
763.0 171.0
763.0 175.0
763.0 179.0
763.0 183.0
763.0 187.0
763.0 191.0
763.0 195.0
763.0 199.0
763.0 203.0
763.0 207.0
763.0 211.0
763.0 215.0
763.0 219.0
763.0 223.0
763.0 227.0
763.0 231.0
763.0 235.0
763.0 239.0
763.0 242.0
763.0 246.0
763.0 250.0
763.0 254.0
763.0 258.0
763.0 261.0
763.0 265.0
763.0 269.0
763.0 272.0
763.0 276.0
763.0 280.0
763.0 284.0
763.0 287.0
763.0 291.0
763.0 294.0
763.0 298.0
763.0 301.0
763.0 304.0
763.0 307.0
763.0 310.0
763.0 313.0
763.0 316.0
763.0 319.0
763.0 322.0
763.0 325.0
763.0 328.0
763.0 331.0
763.0 334.0
763.0 337.0
763.0 340.0
763.0 343.0
763.0 346.0
763.0 349.0
763.0 352.0
763.0 355.0
763.0 358.0
763.0 361.0
763.0 364.0
763.0 367.0
763.0 370.0
763.0 373.0
763.0 376.0
763.0 379.0
763.0 382.0
763.0 385.0
763.0 388.0
763.0 391.0
763.0 394.0
763.0 397.0
819.0 193.0
819.0 307.0
841.0 51.0
841.0 93.0
841.0 135.0
841.0 168.0
841.0 200.0
841.0 235.0
841.0 265.0
841.0 296.0
841.0 322.0
841.0 346.0
841.0 370.0
841.0 394.0
842.0 48.0
842.0 76.0
842.0 104.0
842.0 132.0
842.0 156.0
842.0 180.0
842.0 204.0
842.0 228.0
842.0 252.0
842.0 276.0
842.0 300.0
842.0 324.0
842.0 347.0
842.0 371.0
842.0 395.0
843.0 47.0
843.0 82.0
843.0 118.0
843.0 149.0
843.0 177.0
843.0 207.0
843.0 235.0
843.0 264.0
843.0 291.0
843.0 315.0
843.0 337.0
843.0 359.0
843.0 380.0
850.0 334.0
851.0 81.0
851.0 133.0
851.0 184.0
851.0 237.0
851.0 288.0
851.0 336.0
851.0 381.0
852.0 47.0
852.0 72.0
852.0 96.0
852.0 120.0
852.0 142.0
852.0 162.0
852.0 182.0
852.0 202.0
852.0 222.0
852.0 241.0
852.0 261.0
852.0 281.0
852.0 301.0
852.0 320.0
852.0 340.0
852.0 360.0
852.0 380.0
852.0 400.0
857.0 46.0
857.0 69.0
857.0 91.0
857.0 113.0
857.0 135.0
857.0 155.0
857.0 174.0
857.0 192.0
857.0 210.0
857.0 229.0
857.0 248.0
857.0 267.0
857.0 286.0
857.0 304.0
857.0 323.0
857.0 342.0
857.0 361.0
857.0 379.0
857.0 398.0
860.0 44.0
860.0 73.0
860.0 103.0
860.0 133.0
860.0 157.0
860.0 181.0
860.0 205.0
860.0 229.0
860.0 252.0
860.0 274.0
860.0 297.0
860.0 317.0
860.0 336.0
860.0 355.0
860.0 374.0
860.0 393.0
861.0 48.0
861.0 88.0
861.0 128.0
861.0 159.0
861.0 191.0
861.0 222.0
861.0 250.0
861.0 278.0
861.0 305.0
861.0 327.0
861.0 350.0
861.0 373.0
861.0 395.0
863.0 172.0
863.0 283.0
863.0 371.0
864.0 325.0
866.0 30.0
866.0 45.0
866.0 59.0
866.0 73.0
866.0 87.0
866.0 101.0
866.0 115.0
866.0 129.0
866.0 142.0
866.0 155.0
866.0 168.0
866.0 181.0
866.0 194.0
866.0 207.0
866.0 220.0
866.0 233.0
866.0 246.0
866.0 259.0
866.0 272.0
866.0 285.0
866.0 298.0
866.0 310.0
866.0 321.0
866.0 333.0
866.0 345.0
866.0 357.0
866.0 369.0
866.0 380.0
866.0 391.0
870.0 338.0
880.0 41.0
880.0 62.0
880.0 82.0
880.0 103.0
880.0 124.0
880.0 145.0
880.0 165.0
880.0 185.0
880.0 205.0
880.0 226.0
880.0 247.0
880.0 267.0
880.0 287.0
880.0 306.0
880.0 323.0
880.0 340.0
880.0 357.0
880.0 373.0
880.0 391.0
881.0 372.0
883.0 370.0
886.0 386.0
889.0 362.0
893.0 378.0
894.0 336.0
941.0 47.0
941.0 74.0
941.0 101.0
941.0 127.0
941.0 151.0
941.0 174.0
941.0 196.0
941.0 219.0
941.0 242.0
941.0 265.0
941.0 288.0
941.0 311.0
941.0 335.0
941.0 359.0
941.0 382.0
949.0 46.0
949.0 70.0
949.0 93.0
949.0 115.0
949.0 137.0
949.0 157.0
949.0 176.0
949.0 196.0
949.0 216.0
949.0 236.0
949.0 256.0
949.0 276.0
949.0 296.0
949.0 315.0
949.0 335.0
949.0 355.0
949.0 374.0
949.0 393.0
950.0 47.0
950.0 73.0
950.0 99.0
950.0 125.0
950.0 148.0
950.0 169.0
950.0 191.0
950.0 213.0
950.0 235.0
950.0 258.0
950.0 280.0
950.0 303.0
950.0 324.0
950.0 346.0
950.0 369.0
950.0 390.0
951.0 105.0
951.0 184.0
951.0 264.0
951.0 333.0
959.0 48.0
959.0 75.0
959.0 102.0
959.0 129.0
959.0 153.0
959.0 175.0
959.0 198.0
959.0 221.0
959.0 244.0
959.0 265.0
959.0 288.0
959.0 310.0
959.0 333.0
959.0 357.0
959.0 379.0
965.0 180.0
965.0 324.0
973.0 44.0
973.0 68.0
973.0 92.0
973.0 116.0
973.0 140.0
973.0 161.0
973.0 181.0
973.0 202.0
973.0 222.0
973.0 242.0
973.0 262.0
973.0 282.0
973.0 302.0
973.0 322.0
973.0 342.0
973.0 362.0
973.0 381.0
985.0 104.0
985.0 173.0
985.0 242.0
985.0 315.0
985.0 377.0
991.0 46.0
991.0 69.0
991.0 92.0
991.0 116.0
991.0 138.0
991.0 158.0
991.0 178.0
991.0 199.0
991.0 219.0
991.0 239.0
991.0 258.0
991.0 278.0
991.0 298.0
991.0 318.0
991.0 338.0
991.0 358.0
991.0 378.0
991.0 398.0
994.0 380.0
998.0 177.0
998.0 291.0
1001.0 39.0
1001.0 61.0
1001.0 83.0
1001.0 104.0
1001.0 125.0
1001.0 147.0
1001.0 167.0
1001.0 188.0
1001.0 210.0
1001.0 232.0
1001.0 253.0
1001.0 273.0
1001.0 293.0
1001.0 312.0
1001.0 329.0
1001.0 347.0
1001.0 365.0
1001.0 382.0
1001.0 399.0
1012.0 37.0
1012.0 58.0
1012.0 78.0
1012.0 99.0
1012.0 120.0
1012.0 141.0
1012.0 162.0
1012.0 183.0
1012.0 204.0
1012.0 225.0
1012.0 245.0
1012.0 265.0
1012.0 285.0
1012.0 304.0
1012.0 321.0
1012.0 338.0
1012.0 355.0
1012.0 372.0
1012.0 388.0
1014.0 331.0
1014.0 382.0
1016.0 41.0
1016.0 64.0
1016.0 87.0
1016.0 110.0
1016.0 133.0
1016.0 156.0
1016.0 179.0
1016.0 202.0
1016.0 225.0
1016.0 248.0
1016.0 270.0
1016.0 293.0
1016.0 313.0
1016.0 332.0
1016.0 351.0
1016.0 370.0
1016.0 388.0
1018.0 350.0
1022.0 384.0
1031.0 381.0
1038.0 39.0
1038.0 60.0
1038.0 80.0
1038.0 100.0
1038.0 121.0
1038.0 142.0
1038.0 162.0
1038.0 182.0
1038.0 202.0
1038.0 223.0
1038.0 243.0
1038.0 263.0
1038.0 283.0
1038.0 302.0
1038.0 319.0
1038.0 336.0
1038.0 353.0
1038.0 370.0
1038.0 386.0
1068.0 47.0
1068.0 72.0
1068.0 97.0
1068.0 122.0
1068.0 145.0
1068.0 166.0
1068.0 187.0
1068.0 208.0
1068.0 229.0
1068.0 250.0
1068.0 271.0
1068.0 292.0
1068.0 313.0
1068.0 334.0
1068.0 355.0
1068.0 376.0
1068.0 397.0
1075.0 47.0
1075.0 73.0
1075.0 99.0
1075.0 124.0
1075.0 148.0
1075.0 170.0
1075.0 192.0
1075.0 214.0
1075.0 236.0
1075.0 258.0
1075.0 280.0
1075.0 302.0
1075.0 324.0
1075.0 346.0
1075.0 368.0
1075.0 390.0
1087.0 48.0
1087.0 74.0
1087.0 99.0
1087.0 124.0
1087.0 147.0
1087.0 168.0
1087.0 189.0
1087.0 211.0
1087.0 232.0
1087.0 253.0
1087.0 274.0
1087.0 295.0
1087.0 316.0
1087.0 337.0
1087.0 359.0
1087.0 381.0
1088.0 47.0
1088.0 73.0
1088.0 99.0
1088.0 126.0
1088.0 149.0
1088.0 171.0
1088.0 193.0
1088.0 215.0
1088.0 237.0
1088.0 259.0
1088.0 281.0
1088.0 304.0
1088.0 326.0
1088.0 348.0
1088.0 370.0
1088.0 392.0
1105.0 44.0
1105.0 66.0
1105.0 87.0
1105.0 108.0
1105.0 129.0
1105.0 149.0
1105.0 168.0
1105.0 186.0
1105.0 206.0
1105.0 225.0
1105.0 244.0
1105.0 263.0
1105.0 282.0
1105.0 301.0
1105.0 320.0
1105.0 338.0
1105.0 356.0
1105.0 375.0
1105.0 393.0
1114.0 46.0
1114.0 70.0
1114.0 94.0
1114.0 118.0
1114.0 141.0
1114.0 162.0
1114.0 182.0
1114.0 202.0
1114.0 223.0
1114.0 244.0
1114.0 265.0
1114.0 286.0
1114.0 307.0
1114.0 327.0
1114.0 348.0
1114.0 369.0
1114.0 391.0
1115.0 151.0
1115.0 235.0
1115.0 313.0
1115.0 379.0
1118.0 48.0
1118.0 74.0
1118.0 100.0
1118.0 128.0
1118.0 151.0
1118.0 173.0
1118.0 196.0
1118.0 218.0
1118.0 240.0
1118.0 262.0
1118.0 285.0
1118.0 308.0
1118.0 330.0
1118.0 352.0
1118.0 374.0
1118.0 398.0
1133.0 381.0
1134.0 331.0
1135.0 47.0
1135.0 74.0
1135.0 100.0
1135.0 127.0
1135.0 151.0
1135.0 174.0
1135.0 198.0
1135.0 221.0
1135.0 244.0
1135.0 267.0
1135.0 290.0
1135.0 313.0
1135.0 337.0
1135.0 360.0
1135.0 383.0
1136.0 365.0
1148.0 326.0
1148.0 386.0
1156.0 38.0
1156.0 59.0
1156.0 80.0
1156.0 101.0
1156.0 122.0
1156.0 143.0
1156.0 164.0
1156.0 185.0
1156.0 206.0
1156.0 227.0
1156.0 247.0
1156.0 267.0
1156.0 287.0
1156.0 306.0
1156.0 323.0
1156.0 341.0
1156.0 358.0
1156.0 375.0
1156.0 392.0
1165.0 39.0
1165.0 61.0
1165.0 83.0
1165.0 105.0
1165.0 127.0
1165.0 150.0
1165.0 172.0
1165.0 195.0
1165.0 218.0
1165.0 240.0
1165.0 261.0
1165.0 282.0
1165.0 302.0
1165.0 320.0
1165.0 339.0
1165.0 358.0
1165.0 376.0
1165.0 394.0
1172.0 38.0
1172.0 59.0
1172.0 80.0
1172.0 101.0
1172.0 122.0
1172.0 143.0
1172.0 164.0
1172.0 185.0
1172.0 207.0
1172.0 228.0
1172.0 248.0
1172.0 268.0
1172.0 288.0
1172.0 308.0
1172.0 325.0
1172.0 342.0
1172.0 360.0
1172.0 377.0
1172.0 394.0
1174.0 169.0
1174.0 280.0
1174.0 376.0
1204.0 48.0
1204.0 74.0
1204.0 99.0
1204.0 124.0
1204.0 147.0
1204.0 169.0
1204.0 190.0
1204.0 212.0
1204.0 234.0
1204.0 256.0
1204.0 278.0
1204.0 301.0
1204.0 322.0
1204.0 344.0
1204.0 366.0
1204.0 388.0
1222.0 47.0
1222.0 71.0
1222.0 95.0
1222.0 119.0
1222.0 142.0
1222.0 163.0
1222.0 184.0
1222.0 205.0
1222.0 226.0
1222.0 247.0
1222.0 267.0
1222.0 287.0
1222.0 308.0
1222.0 329.0
1222.0 350.0
1222.0 371.0
1222.0 391.0
1223.0 382.0
1225.0 136.0
1225.0 226.0
1225.0 304.0
1225.0 370.0
1226.0 45.0
1226.0 68.0
1226.0 92.0
1226.0 116.0
1226.0 138.0
1226.0 158.0
1226.0 178.0
1226.0 198.0
1226.0 218.0
1226.0 237.0
1226.0 257.0
1226.0 277.0
1226.0 297.0
1226.0 316.0
1226.0 336.0
1226.0 356.0
1226.0 376.0
1226.0 396.0
1236.0 268.0
1241.0 189.0
1241.0 291.0
1241.0 387.0
1243.0 136.0
1243.0 226.0
1243.0 313.0
1243.0 397.0
1251.0 38.0
1251.0 59.0
1251.0 79.0
1251.0 99.0
1251.0 119.0
1251.0 140.0
1251.0 161.0
1251.0 181.0
1251.0 201.0
1251.0 222.0
1251.0 243.0
1251.0 262.0
1251.0 281.0
1251.0 300.0
1251.0 318.0
1251.0 335.0
1251.0 352.0
1251.0 369.0
1251.0 385.0
1252.0 382.0
1253.0 39.0
1253.0 62.0
1253.0 85.0
1253.0 108.0
1253.0 132.0
1253.0 156.0
1253.0 179.0
1253.0 203.0
1253.0 226.0
1253.0 248.0
1253.0 270.0
1253.0 292.0
1253.0 313.0
1253.0 332.0
1253.0 350.0
1253.0 369.0
1253.0 388.0
1254.0 45.0
1254.0 70.0
1254.0 94.0
1254.0 119.0
1254.0 143.0
1254.0 164.0
1254.0 184.0
1254.0 205.0
1254.0 226.0
1254.0 247.0
1254.0 268.0
1254.0 289.0
1254.0 310.0
1254.0 331.0
1254.0 352.0
1254.0 373.0
1254.0 394.0
1257.0 183.0
1257.0 269.0
1257.0 357.0
1262.0 333.0
1263.0 175.0
1271.0 393.0
1300.0 388.0
1305.0 376.0
1337.0 45.0
1337.0 70.0
1337.0 94.0
1337.0 119.0
1337.0 142.0
1337.0 163.0
1337.0 184.0
1337.0 206.0
1337.0 227.0
1337.0 248.0
1337.0 269.0
1337.0 290.0
1337.0 311.0
1337.0 332.0
1337.0 353.0
1337.0 374.0
1337.0 395.0
1340.0 44.0
1340.0 68.0
1340.0 93.0
1340.0 118.0
1340.0 141.0
1340.0 161.0
1340.0 181.0
1340.0 202.0
1340.0 223.0
1340.0 243.0
1340.0 263.0
1340.0 283.0
1340.0 304.0
1340.0 324.0
1340.0 345.0
1340.0 366.0
1340.0 386.0
1345.0 46.0
1345.0 72.0
1345.0 99.0
1345.0 124.0
1345.0 147.0
1345.0 168.0
1345.0 190.0
1345.0 212.0
1345.0 234.0
1345.0 256.0
1345.0 278.0
1345.0 301.0
1345.0 322.0
1345.0 345.0
1345.0 367.0
1345.0 390.0
1355.0 90.0
1355.0 153.0
1355.0 229.0
1355.0 294.0
1355.0 355.0
1365.0 174.0
1365.0 336.0
1381.0 400.0
1388.0 166.0
1390.0 39.0
1390.0 60.0
1390.0 81.0
1390.0 101.0
1390.0 121.0
1390.0 142.0
1390.0 162.0
1390.0 182.0
1390.0 203.0
1390.0 224.0
1390.0 244.0
1390.0 264.0
1390.0 283.0
1390.0 302.0
1390.0 319.0
1390.0 336.0
1390.0 353.0
1390.0 370.0
1390.0 386.0
1404.0 40.0
1404.0 62.0
1404.0 84.0
1404.0 105.0
1404.0 126.0
1404.0 147.0
1404.0 168.0
1404.0 189.0
1404.0 210.0
1404.0 231.0
1404.0 252.0
1404.0 273.0
1404.0 293.0
1404.0 312.0
1404.0 329.0
1404.0 346.0
1404.0 364.0
1404.0 382.0
1404.0 399.0
1415.0 342.0
1417.0 49.0
1417.0 77.0
1417.0 104.0
1417.0 131.0
1417.0 155.0
1417.0 179.0
1417.0 203.0
1417.0 227.0
1417.0 251.0
1417.0 275.0
1417.0 299.0
1417.0 323.0
1417.0 347.0
1417.0 371.0
1417.0 395.0
1418.0 47.0
1418.0 74.0
1418.0 100.0
1418.0 126.0
1418.0 149.0
1418.0 171.0
1418.0 194.0
1418.0 216.0
1418.0 238.0
1418.0 260.0
1418.0 282.0
1418.0 305.0
1418.0 327.0
1418.0 350.0
1418.0 372.0
1418.0 394.0
1419.0 189.0
1419.0 291.0
1419.0 384.0
1423.0 46.0
1423.0 71.0
1423.0 96.0
1423.0 121.0
1423.0 145.0
1423.0 166.0
1423.0 187.0
1423.0 208.0
1423.0 230.0
1423.0 251.0
1423.0 272.0
1423.0 293.0
1423.0 314.0
1423.0 335.0
1423.0 356.0
1423.0 377.0
1423.0 398.0
1433.0 157.0
1433.0 252.0
1433.0 381.0
1434.0 320.0
1436.0 186.0
1436.0 339.0
1439.0 256.0
1439.0 373.0
1442.0 6.0
1442.0 10.0
1442.0 14.0
1442.0 18.0
1442.0 22.0
1442.0 25.0
1442.0 29.0
1442.0 33.0
1442.0 36.0
1442.0 40.0
1442.0 43.0
1442.0 46.0
1442.0 49.0
1442.0 52.0
1442.0 55.0
1442.0 58.0
1442.0 61.0
1442.0 64.0
1442.0 67.0
1442.0 70.0
1442.0 73.0
1442.0 76.0
1442.0 79.0
1442.0 82.0
1442.0 85.0
1442.0 88.0
1442.0 91.0
1442.0 94.0
1442.0 97.0
1442.0 100.0
1442.0 103.0
1442.0 106.0
1442.0 109.0
1442.0 112.0
1442.0 115.0
1442.0 118.0
1442.0 121.0
1442.0 124.0
1442.0 127.0
1442.0 130.0
1442.0 133.0
1442.0 136.0
1442.0 139.0
1442.0 142.0
1442.0 145.0
1442.0 148.0
1442.0 151.0
1442.0 154.0
1442.0 157.0
1442.0 160.0
1442.0 163.0
1442.0 166.0
1442.0 169.0
1442.0 172.0
1442.0 175.0
1442.0 178.0
1442.0 181.0
1442.0 184.0
1442.0 187.0
1442.0 190.0
1442.0 193.0
1442.0 196.0
1442.0 199.0
1442.0 202.0
1442.0 205.0
1442.0 208.0
1442.0 211.0
1442.0 214.0
1442.0 217.0
1442.0 220.0
1442.0 223.0
1442.0 226.0
1442.0 229.0
1442.0 232.0
1442.0 235.0
1442.0 238.0
1442.0 241.0
1442.0 244.0
1442.0 247.0
1442.0 250.0
1442.0 253.0
1442.0 256.0
1442.0 259.0
1442.0 262.0
1442.0 265.0
1442.0 268.0
1442.0 271.0
1442.0 274.0
1442.0 277.0
1442.0 280.0
1442.0 283.0
1442.0 286.0
1442.0 289.0
1442.0 292.0
1442.0 295.0
1442.0 298.0
1442.0 301.0
1442.0 304.0
1442.0 307.0
1442.0 310.0
1442.0 313.0
1442.0 316.0
1442.0 319.0
1442.0 322.0
1442.0 325.0
1442.0 328.0
1442.0 331.0
1442.0 334.0
1442.0 337.0
1442.0 340.0
1442.0 343.0
1442.0 346.0
1442.0 349.0
1442.0 352.0
1442.0 355.0
1442.0 358.0
1442.0 361.0
1442.0 364.0
1442.0 367.0
1442.0 370.0
1442.0 373.0
1442.0 376.0
1442.0 379.0
1442.0 382.0
1442.0 385.0
1442.0 388.0
1442.0 391.0
1442.0 394.0
1442.0 397.0
1445.0 188.0
1445.0 321.0
1446.0 151.0
1446.0 254.0
1446.0 340.0
1447.0 387.0
