241.0 151.0
334.0 163.0
347.0 38.0
347.0 60.0
347.0 81.0
347.0 102.0
347.0 123.0
347.0 145.0
347.0 169.0
347.0 195.0
347.0 224.0
347.0 251.0
347.0 279.0
347.0 307.0
347.0 335.0
347.0 363.0
347.0 390.0
456.0 39.0
456.0 61.0
456.0 83.0
456.0 104.0
456.0 125.0
456.0 148.0
456.0 172.0
456.0 198.0
456.0 225.0
456.0 254.0
456.0 280.0
456.0 308.0
456.0 337.0
456.0 364.0
456.0 393.0
466.0 159.0
475.0 126.0
475.0 345.0
478.0 128.0
591.0 38.0
591.0 58.0
591.0 78.0
591.0 98.0
591.0 118.0
591.0 139.0
591.0 160.0
591.0 183.0
591.0 210.0
591.0 236.0
591.0 262.0
591.0 289.0
591.0 315.0
591.0 340.0
591.0 367.0
591.0 392.0
599.0 38.0
599.0 59.0
599.0 80.0
599.0 101.0
599.0 121.0
599.0 143.0
599.0 168.0
599.0 194.0
599.0 224.0
599.0 251.0
599.0 278.0
599.0 308.0
599.0 335.0
599.0 364.0
599.0 392.0
605.0 172.0
612.0 105.0
612.0 190.0
612.0 309.0
612.0 393.0
625.0 89.0
625.0 167.0
625.0 260.0
680.0 6.0
680.0 10.0
680.0 14.0
680.0 18.0
680.0 22.0
680.0 26.0
680.0 30.0
680.0 34.0
680.0 38.0
680.0 42.0
680.0 46.0
680.0 50.0
680.0 54.0
680.0 58.0
680.0 62.0
680.0 66.0
680.0 70.0
680.0 74.0
680.0 78.0
680.0 82.0
680.0 86.0
680.0 90.0
680.0 94.0
680.0 98.0
680.0 102.0
680.0 106.0
680.0 110.0
680.0 114.0
680.0 118.0
680.0 122.0
680.0 126.0
680.0 130.0
680.0 135.0
680.0 139.0
680.0 144.0
680.0 148.0
680.0 153.0
680.0 158.0
680.0 163.0
680.0 168.0
680.0 173.0
680.0 178.0
680.0 183.0
680.0 189.0
680.0 195.0
680.0 201.0
680.0 207.0
680.0 213.0
680.0 219.0
680.0 225.0
680.0 231.0
680.0 237.0
680.0 243.0
680.0 249.0
680.0 255.0
680.0 261.0
680.0 267.0
680.0 273.0
680.0 279.0
680.0 285.0
680.0 291.0
680.0 297.0
680.0 303.0
680.0 309.0
680.0 315.0
680.0 321.0
680.0 327.0
680.0 333.0
680.0 339.0
680.0 345.0
680.0 351.0
680.0 357.0
680.0 363.0
680.0 369.0
680.0 375.0
680.0 381.0
680.0 387.0
680.0 393.0
714.0 42.0
714.0 68.0
714.0 93.0
714.0 119.0
714.0 145.0
714.0 176.0
714.0 214.0
714.0 252.0
714.0 289.0
714.0 327.0
714.0 368.0
725.0 40.0
725.0 60.0
725.0 80.0
725.0 100.0
725.0 119.0
725.0 139.0
725.0 160.0
725.0 180.0
725.0 200.0
725.0 220.0
725.0 240.0
725.0 261.0
725.0 281.0
725.0 301.0
725.0 321.0
725.0 341.0
725.0 362.0
725.0 381.0
726.0 162.0
726.0 261.0
735.0 37.0
735.0 57.0
735.0 76.0
735.0 96.0
735.0 116.0
735.0 136.0
735.0 156.0
735.0 176.0
735.0 196.0
735.0 216.0
735.0 236.0
735.0 257.0
735.0 277.0
735.0 298.0
735.0 317.0
735.0 338.0
735.0 358.0
735.0 377.0
735.0 398.0
736.0 37.0
736.0 58.0
736.0 79.0
736.0 101.0
736.0 122.0
736.0 143.0
736.0 166.0
736.0 190.0
736.0 217.0
736.0 244.0
736.0 273.0
736.0 300.0
736.0 327.0
736.0 355.0
736.0 382.0
738.0 44.0
738.0 72.0
738.0 100.0
738.0 129.0
738.0 161.0
738.0 201.0
738.0 249.0
738.0 297.0
738.0 345.0
738.0 391.0
754.0 141.0
762.0 134.0
763.0 6.0
763.0 10.0
763.0 14.0
763.0 17.0
763.0 21.0
763.0 24.0
763.0 28.0
763.0 31.0
763.0 34.0
763.0 37.0
763.0 40.0
763.0 43.0
763.0 46.0
763.0 49.0
763.0 52.0
763.0 55.0
763.0 58.0
763.0 61.0
763.0 64.0
763.0 67.0
763.0 70.0
763.0 73.0
763.0 76.0
763.0 79.0
763.0 82.0
763.0 85.0
763.0 88.0
763.0 91.0
763.0 94.0
763.0 97.0
763.0 100.0
763.0 103.0
763.0 106.0
763.0 109.0
763.0 112.0
763.0 115.0
763.0 118.0
763.0 121.0
763.0 124.0
763.0 127.0
763.0 130.0
763.0 133.0
763.0 136.0
763.0 139.0
763.0 142.0
763.0 145.0
763.0 148.0
763.0 151.0
763.0 154.0
763.0 157.0
763.0 160.0
763.0 163.0
763.0 166.0
763.0 169.0
763.0 172.0
763.0 175.0
763.0 178.0
763.0 181.0
763.0 184.0
763.0 187.0
763.0 190.0
763.0 193.0
763.0 196.0
763.0 199.0
763.0 202.0
763.0 205.0
763.0 208.0
763.0 211.0
763.0 214.0
763.0 217.0
763.0 220.0
763.0 223.0
763.0 226.0
763.0 229.0
763.0 232.0
763.0 235.0
763.0 238.0
763.0 241.0
763.0 244.0
763.0 247.0
763.0 250.0
763.0 253.0
763.0 256.0
763.0 259.0
763.0 262.0
763.0 265.0
763.0 268.0
763.0 271.0
763.0 274.0
763.0 277.0
763.0 280.0
763.0 283.0
763.0 286.0
763.0 289.0
763.0 292.0
763.0 295.0
763.0 298.0
763.0 301.0
763.0 304.0
763.0 307.0
763.0 310.0
763.0 313.0
763.0 316.0
763.0 319.0
763.0 322.0
763.0 325.0
763.0 328.0
763.0 331.0
763.0 334.0
763.0 337.0
763.0 340.0
763.0 343.0
763.0 346.0
763.0 349.0
763.0 352.0
763.0 355.0
763.0 358.0
763.0 361.0
763.0 364.0
763.0 367.0
763.0 370.0
763.0 373.0
763.0 376.0
763.0 379.0
763.0 382.0
763.0 385.0
763.0 388.0
763.0 391.0
763.0 394.0
763.0 400.0
841.0 39.0
841.0 63.0
841.0 87.0
841.0 110.0
841.0 133.0
841.0 160.0
841.0 187.0
841.0 217.0
841.0 248.0
841.0 277.0
841.0 307.0
841.0 338.0
841.0 370.0
842.0 42.0
842.0 74.0
842.0 106.0
842.0 138.0
842.0 177.0
842.0 231.0
842.0 284.0
842.0 339.0
842.0 390.0
843.0 39.0
843.0 61.0
843.0 83.0
843.0 105.0
843.0 127.0
843.0 151.0
843.0 176.0
843.0 204.0
843.0 233.0
843.0 263.0
843.0 292.0
843.0 320.0
843.0 349.0
843.0 378.0
852.0 41.0
852.0 66.0
852.0 92.0
852.0 118.0
852.0 145.0
852.0 177.0
852.0 212.0
852.0 249.0
852.0 289.0
852.0 326.0
852.0 364.0
852.0 399.0
857.0 42.0
857.0 67.0
857.0 92.0
857.0 116.0
857.0 141.0
857.0 171.0
857.0 207.0
857.0 243.0
857.0 279.0
857.0 317.0
857.0 352.0
857.0 387.0
860.0 36.0
860.0 55.0
860.0 75.0
860.0 95.0
860.0 115.0
860.0 135.0
860.0 156.0
860.0 179.0
860.0 203.0
860.0 230.0
860.0 255.0
860.0 281.0
860.0 305.0
860.0 332.0
860.0 357.0
860.0 381.0
861.0 39.0
861.0 62.0
861.0 84.0
861.0 107.0
861.0 128.0
861.0 152.0
861.0 178.0
861.0 207.0
861.0 236.0
861.0 266.0
861.0 296.0
861.0 326.0
861.0 356.0
861.0 386.0
866.0 28.0
866.0 42.0
866.0 55.0
866.0 68.0
866.0 81.0
866.0 94.0
866.0 107.0
866.0 120.0
866.0 133.0
866.0 146.0
866.0 160.0
866.0 174.0
866.0 188.0
866.0 203.0
866.0 218.0
866.0 232.0
866.0 247.0
866.0 262.0
866.0 277.0
866.0 291.0
866.0 306.0
866.0 321.0
866.0 335.0
866.0 350.0
866.0 365.0
866.0 379.0
866.0 393.0
870.0 92.0
870.0 178.0
870.0 301.0
870.0 397.0
880.0 40.0
880.0 61.0
880.0 82.0
880.0 103.0
880.0 124.0
880.0 145.0
880.0 166.0
880.0 187.0
880.0 208.0
880.0 229.0
880.0 250.0
880.0 271.0
880.0 292.0
880.0 313.0
880.0 334.0
880.0 355.0
880.0 376.0
880.0 396.0
881.0 114.0
881.0 324.0
889.0 127.0
889.0 235.0
889.0 328.0
894.0 87.0
894.0 170.0
894.0 239.0
894.0 315.0
894.0 383.0
941.0 41.0
941.0 72.0
941.0 102.0
941.0 133.0
941.0 168.0
941.0 222.0
941.0 276.0
941.0 330.0
941.0 380.0
949.0 41.0
949.0 67.0
949.0 92.0
949.0 117.0
949.0 144.0
949.0 174.0
949.0 212.0
949.0 253.0
949.0 295.0
949.0 333.0
949.0 373.0
950.0 41.0
950.0 70.0
950.0 99.0
950.0 129.0
950.0 163.0
950.0 207.0
950.0 255.0
950.0 303.0
950.0 349.0
950.0 394.0
959.0 43.0
959.0 75.0
959.0 105.0
959.0 135.0
959.0 173.0
959.0 220.0
959.0 268.0
959.0 320.0
959.0 371.0
973.0 39.0
973.0 65.0
973.0 91.0
973.0 118.0
973.0 144.0
973.0 175.0
973.0 211.0
973.0 247.0
973.0 286.0
973.0 326.0
973.0 363.0
973.0 399.0
989.0 229.0
991.0 40.0
991.0 66.0
991.0 91.0
991.0 116.0
991.0 142.0
991.0 174.0
991.0 212.0
991.0 251.0
991.0 291.0
991.0 330.0
991.0 368.0
1001.0 38.0
1001.0 60.0
1001.0 82.0
1001.0 104.0
1001.0 125.0
1001.0 146.0
1001.0 167.0
1001.0 188.0
1001.0 209.0
1001.0 230.0
1001.0 251.0
1001.0 272.0
1001.0 293.0
1001.0 314.0
1001.0 335.0
1001.0 356.0
1001.0 377.0
1001.0 398.0
1012.0 37.0
1012.0 58.0
1012.0 79.0
1012.0 100.0
1012.0 121.0
1012.0 142.0
1012.0 163.0
1012.0 184.0
1012.0 205.0
1012.0 226.0
1012.0 247.0
1012.0 268.0
1012.0 289.0
1012.0 310.0
1012.0 331.0
1012.0 352.0
1012.0 373.0
1012.0 393.0
1014.0 118.0
1014.0 215.0
1014.0 325.0
1016.0 40.0
1016.0 63.0
1016.0 86.0
1016.0 109.0
1016.0 132.0
1016.0 155.0
1016.0 178.0
1016.0 201.0
1016.0 224.0
1016.0 247.0
1016.0 271.0
1016.0 295.0
1016.0 319.0
1016.0 343.0
1016.0 367.0
1016.0 390.0
1018.0 101.0
1018.0 206.0
1018.0 299.0
1018.0 398.0
1022.0 189.0
1022.0 339.0
1031.0 174.0
1031.0 324.0
1038.0 37.0
1038.0 58.0
1038.0 78.0
1038.0 98.0
1038.0 118.0
1038.0 138.0
1038.0 158.0
1038.0 178.0
1038.0 198.0
1038.0 218.0
1038.0 238.0
1038.0 259.0
1038.0 280.0
1038.0 301.0
1038.0 322.0
1038.0 342.0
1038.0 364.0
1038.0 385.0
1068.0 41.0
1068.0 69.0
1068.0 97.0
1068.0 125.0
1068.0 156.0
1068.0 193.0
1068.0 237.0
1068.0 282.0
1068.0 325.0
1068.0 369.0
1075.0 42.0
1075.0 72.0
1075.0 102.0
1075.0 132.0
1075.0 167.0
1075.0 212.0
1075.0 260.0
1075.0 308.0
1075.0 356.0
1075.0 399.0
1087.0 43.0
1087.0 71.0
1087.0 99.0
1087.0 127.0
1087.0 159.0
1087.0 199.0
1087.0 247.0
1087.0 295.0
1087.0 343.0
1087.0 390.0
1088.0 42.0
1088.0 71.0
1088.0 101.0
1088.0 130.0
1088.0 163.0
1088.0 205.0
1088.0 252.0
1088.0 300.0
1088.0 348.0
1088.0 391.0
1105.0 39.0
1105.0 63.0
1105.0 87.0
1105.0 111.0
1105.0 135.0
1105.0 162.0
1105.0 190.0
1105.0 224.0
1105.0 260.0
1105.0 294.0
1105.0 327.0
1105.0 362.0
1105.0 394.0
1114.0 41.0
1114.0 67.0
1114.0 94.0
1114.0 121.0
1114.0 150.0
1114.0 183.0
1114.0 219.0
1114.0 259.0
1114.0 302.0
1114.0 345.0
1114.0 385.0
1118.0 42.0
1118.0 71.0
1118.0 100.0
1118.0 130.0
1118.0 164.0
1118.0 207.0
1118.0 256.0
1118.0 306.0
1118.0 356.0
1134.0 124.0
1134.0 225.0
1134.0 313.0
1135.0 42.0
1135.0 73.0
1135.0 104.0
1135.0 134.0
1135.0 170.0
1135.0 219.0
1135.0 269.0
1135.0 321.0
1135.0 370.0
1148.0 122.0
1148.0 337.0
1156.0 37.0
1156.0 58.0
1156.0 79.0
1156.0 100.0
1156.0 121.0
1156.0 142.0
1156.0 163.0
1156.0 184.0
1156.0 205.0
1156.0 226.0
1156.0 247.0
1156.0 269.0
1156.0 290.0
1156.0 310.0
1156.0 331.0
1156.0 352.0
1156.0 373.0
1156.0 393.0
1165.0 37.0
1165.0 59.0
1165.0 80.0
1165.0 102.0
1165.0 124.0
1165.0 145.0
1165.0 167.0
1165.0 189.0
1165.0 211.0
1165.0 233.0
1165.0 255.0
1165.0 277.0
1165.0 299.0
1165.0 321.0
1165.0 343.0
1165.0 366.0
1165.0 388.0
1172.0 37.0
1172.0 58.0
1172.0 79.0
1172.0 100.0
1172.0 121.0
1172.0 142.0
1172.0 163.0
1172.0 184.0
1172.0 205.0
1172.0 226.0
1172.0 247.0
1172.0 268.0
1172.0 289.0
1172.0 311.0
1172.0 332.0
1172.0 353.0
1172.0 374.0
1172.0 395.0
1204.0 43.0
1204.0 72.0
1204.0 100.0
1204.0 128.0
1204.0 160.0
1204.0 200.0
1204.0 248.0
1204.0 296.0
1204.0 344.0
1204.0 391.0
1222.0 42.0
1222.0 69.0
1222.0 96.0
1222.0 123.0
1222.0 152.0
1222.0 185.0
1222.0 226.0
1222.0 267.0
1222.0 310.0
1222.0 351.0
1222.0 391.0
1226.0 40.0
1226.0 66.0
1226.0 91.0
1226.0 118.0
1226.0 146.0
1226.0 178.0
1226.0 215.0
1226.0 254.0
1226.0 295.0
1226.0 332.0
1226.0 370.0
1251.0 37.0
1251.0 58.0
1251.0 79.0
1251.0 100.0
1251.0 121.0
1251.0 142.0
1251.0 163.0
1251.0 184.0
1251.0 205.0
1251.0 226.0
1251.0 247.0
1251.0 268.0
1251.0 289.0
1251.0 309.0
1251.0 330.0
1251.0 350.0
1251.0 370.0
1251.0 390.0
1252.0 124.0
1253.0 38.0
1253.0 61.0
1253.0 84.0
1253.0 107.0
1253.0 130.0
1253.0 153.0
1253.0 177.0
1253.0 201.0
1253.0 224.0
1253.0 247.0
1253.0 270.0
1253.0 293.0
1253.0 316.0
1253.0 339.0
1253.0 362.0
1253.0 385.0
1254.0 41.0
1254.0 69.0
1254.0 97.0
1254.0 125.0
1254.0 154.0
1254.0 189.0
1254.0 232.0
1254.0 274.0
1254.0 317.0
1254.0 359.0
1262.0 132.0
1337.0 41.0
1337.0 69.0
1337.0 97.0
1337.0 125.0
1337.0 154.0
1337.0 189.0
1337.0 231.0
1337.0 273.0
1337.0 315.0
1337.0 357.0
1337.0 396.0
1340.0 40.0
1340.0 67.0
1340.0 95.0
1340.0 123.0
1340.0 153.0
1340.0 188.0
1340.0 230.0
1340.0 273.0
1340.0 314.0
1340.0 357.0
1340.0 398.0
1345.0 40.0
1345.0 69.0
1345.0 97.0
1345.0 125.0
1345.0 157.0
1345.0 196.0
1345.0 244.0
1345.0 292.0
1345.0 341.0
1345.0 388.0
1390.0 38.0
1390.0 58.0
1390.0 78.0
1390.0 98.0
1390.0 118.0
1390.0 138.0
1390.0 158.0
1390.0 178.0
1390.0 199.0
1390.0 219.0
1390.0 239.0
1390.0 259.0
1390.0 279.0
1390.0 299.0
1390.0 320.0
1390.0 340.0
1390.0 361.0
1390.0 382.0
1404.0 39.0
1404.0 61.0
1404.0 83.0
1404.0 104.0
1404.0 125.0
1404.0 147.0
1404.0 169.0
1404.0 191.0
1404.0 212.0
1404.0 233.0
1404.0 255.0
1404.0 277.0
1404.0 299.0
1404.0 320.0
1404.0 341.0
1404.0 363.0
1404.0 385.0
1417.0 44.0
1417.0 75.0
1417.0 106.0
1417.0 136.0
1417.0 175.0
1417.0 226.0
1417.0 279.0
1417.0 330.0
1417.0 382.0
1418.0 42.0
1418.0 71.0
1418.0 100.0
1418.0 129.0
1418.0 162.0
1418.0 202.0
1418.0 246.0
1418.0 292.0
1418.0 339.0
1418.0 387.0
1423.0 41.0
1423.0 69.0
1423.0 97.0
1423.0 125.0
1423.0 155.0
1423.0 190.0
1423.0 234.0
1423.0 279.0
1423.0 322.0
1423.0 365.0
1442.0 6.0
1442.0 11.0
1442.0 14.0
1442.0 19.0
1442.0 22.0
1442.0 26.0
1442.0 30.0
1442.0 34.0
1442.0 38.0
1442.0 42.0
1442.0 46.0
1442.0 50.0
1442.0 54.0
1442.0 58.0
1442.0 62.0
1442.0 66.0
1442.0 70.0
1442.0 74.0
1442.0 78.0
1442.0 82.0
1442.0 86.0
1442.0 90.0
1442.0 94.0
1442.0 98.0
1442.0 102.0
1442.0 106.0
1442.0 110.0
1442.0 114.0
1442.0 118.0
1442.0 122.0
1442.0 126.0
1442.0 130.0
1442.0 134.0
1442.0 138.0
1442.0 142.0
1442.0 146.0
1442.0 150.0
1442.0 154.0
1442.0 158.0
1442.0 162.0
1442.0 166.0
1442.0 170.0
1442.0 174.0
1442.0 178.0
1442.0 182.0
1442.0 186.0
1442.0 190.0
1442.0 194.0
1442.0 198.0
1442.0 202.0
1442.0 206.0
1442.0 210.0
1442.0 214.0
1442.0 218.0
1442.0 222.0
1442.0 226.0
1442.0 230.0
1442.0 234.0
1442.0 238.0
1442.0 242.0
1442.0 246.0
1442.0 250.0
1442.0 254.0
1442.0 258.0
1442.0 262.0
1442.0 266.0
1442.0 270.0
1442.0 274.0
1442.0 278.0
1442.0 282.0
1442.0 286.0
1442.0 290.0
1442.0 294.0
1442.0 298.0
1442.0 302.0
1442.0 306.0
1442.0 310.0
1442.0 314.0
1442.0 318.0
1442.0 322.0
1442.0 326.0
1442.0 330.0
1442.0 334.0
1442.0 338.0
1442.0 342.0
1442.0 346.0
1442.0 350.0
1442.0 354.0
1442.0 358.0
1442.0 362.0
1442.0 366.0
1442.0 370.0
1442.0 374.0
1442.0 378.0
1442.0 382.0
1442.0 385.0
1442.0 389.0
1442.0 393.0
1442.0 398.0
