14.0 59.0
14.0 102.0
14.0 137.0
14.0 165.0
14.0 190.0
14.0 215.0
14.0 240.0
14.0 265.0
14.0 290.0
14.0 316.0
14.0 345.0
14.0 373.0
26.0 9.0
26.0 15.0
26.0 21.0
26.0 27.0
26.0 33.0
26.0 39.0
26.0 45.0
26.0 51.0
26.0 57.0
26.0 63.0
26.0 69.0
26.0 75.0
26.0 81.0
26.0 87.0
26.0 93.0
26.0 99.0
26.0 105.0
26.0 111.0
26.0 117.0
26.0 122.0
26.0 127.0
26.0 132.0
26.0 137.0
26.0 142.0
26.0 147.0
26.0 152.0
26.0 157.0
26.0 162.0
26.0 167.0
26.0 172.0
26.0 177.0
26.0 182.0
26.0 187.0
26.0 192.0
26.0 197.0
26.0 202.0
26.0 207.0
26.0 212.0
26.0 217.0
26.0 222.0
26.0 227.0
26.0 232.0
26.0 237.0
26.0 242.0
26.0 247.0
26.0 252.0
26.0 257.0
26.0 262.0
26.0 267.0
26.0 272.0
26.0 277.0
26.0 282.0
26.0 287.0
26.0 292.0
26.0 297.0
26.0 302.0
26.0 307.0
26.0 313.0
26.0 319.0
26.0 325.0
26.0 331.0
26.0 337.0
26.0 343.0
26.0 349.0
26.0 355.0
26.0 361.0
26.0 367.0
26.0 373.0
26.0 379.0
26.0 385.0
26.0 391.0
62.0 58.0
62.0 105.0
62.0 139.0
62.0 167.0
62.0 192.0
62.0 217.0
62.0 242.0
62.0 267.0
62.0 292.0
62.0 318.0
62.0 345.0
62.0 372.0
62.0 399.0
87.0 65.0
87.0 114.0
87.0 149.0
87.0 178.0
87.0 205.0
87.0 232.0
87.0 259.0
87.0 286.0
87.0 313.0
87.0 344.0
87.0 375.0
157.0 61.0
157.0 106.0
157.0 142.0
157.0 169.0
157.0 194.0
157.0 218.0
157.0 243.0
157.0 268.0
157.0 294.0
157.0 319.0
157.0 348.0
157.0 376.0
159.0 58.0
159.0 101.0
159.0 138.0
159.0 165.0
159.0 190.0
159.0 215.0
159.0 240.0
159.0 265.0
159.0 290.0
159.0 314.0
159.0 343.0
159.0 373.0
165.0 69.0
165.0 122.0
165.0 157.0
165.0 185.0
165.0 213.0
165.0 240.0
165.0 268.0
165.0 297.0
165.0 327.0
165.0 360.0
165.0 391.0
166.0 58.0
166.0 102.0
166.0 137.0
166.0 165.0
166.0 189.0
166.0 213.0
166.0 238.0
166.0 263.0
166.0 288.0
166.0 312.0
166.0 339.0
166.0 367.0
166.0 396.0
167.0 64.0
167.0 112.0
167.0 148.0
167.0 175.0
167.0 201.0
167.0 227.0
167.0 253.0
167.0 278.0
167.0 303.0
167.0 331.0
167.0 360.0
167.0 390.0
185.0 61.0
185.0 109.0
185.0 142.0
185.0 170.0
185.0 195.0
185.0 219.0
185.0 245.0
185.0 270.0
185.0 295.0
185.0 321.0
185.0 349.0
185.0 377.0
286.0 60.0
286.0 105.0
286.0 142.0
286.0 169.0
286.0 194.0
286.0 218.0
286.0 243.0
286.0 268.0
286.0 294.0
286.0 320.0
286.0 350.0
286.0 380.0
296.0 63.0
296.0 107.0
296.0 141.0
296.0 167.0
296.0 192.0
296.0 215.0
296.0 239.0
296.0 263.0
296.0 287.0
296.0 310.0
296.0 337.0
296.0 366.0
296.0 393.0
297.0 247.0
303.0 56.0
303.0 94.0
303.0 128.0
303.0 157.0
303.0 180.0
303.0 203.0
303.0 227.0
303.0 250.0
303.0 274.0
303.0 298.0
303.0 324.0
303.0 350.0
303.0 377.0
306.0 61.0
306.0 105.0
306.0 141.0
306.0 168.0
306.0 192.0
306.0 215.0
306.0 239.0
306.0 263.0
306.0 287.0
306.0 311.0
306.0 338.0
306.0 365.0
306.0 392.0
347.0 38.0
347.0 63.0
347.0 85.0
347.0 110.0
347.0 130.0
347.0 150.0
347.0 169.0
347.0 192.0
347.0 215.0
347.0 238.0
347.0 262.0
347.0 286.0
347.0 310.0
347.0 336.0
347.0 364.0
347.0 391.0
426.0 219.0
428.0 66.0
428.0 113.0
428.0 148.0
428.0 175.0
428.0 201.0
428.0 228.0
428.0 255.0
428.0 282.0
428.0 309.0
428.0 339.0
428.0 370.0
428.0 400.0
434.0 62.0
434.0 110.0
434.0 143.0
434.0 171.0
434.0 197.0
434.0 222.0
434.0 248.0
434.0 274.0
434.0 299.0
434.0 325.0
434.0 354.0
434.0 384.0
435.0 62.0
435.0 105.0
435.0 142.0
435.0 169.0
435.0 194.0
435.0 219.0
435.0 245.0
435.0 269.0
435.0 294.0
435.0 320.0
435.0 348.0
435.0 378.0
445.0 207.0
450.0 56.0
450.0 99.0
450.0 135.0
450.0 162.0
450.0 187.0
450.0 212.0
450.0 237.0
450.0 262.0
450.0 287.0
450.0 312.0
450.0 340.0
450.0 368.0
450.0 396.0
456.0 116.0
456.0 168.0
477.0 63.0
477.0 110.0
477.0 143.0
477.0 171.0
477.0 196.0
477.0 221.0
477.0 246.0
477.0 271.0
477.0 296.0
477.0 323.0
477.0 353.0
477.0 382.0
558.0 63.0
558.0 106.0
558.0 139.0
558.0 165.0
558.0 189.0
558.0 213.0
558.0 237.0
558.0 261.0
558.0 285.0
558.0 309.0
558.0 335.0
558.0 361.0
558.0 388.0
580.0 64.0
580.0 114.0
580.0 149.0
580.0 177.0
580.0 203.0
580.0 229.0
580.0 256.0
580.0 283.0
580.0 310.0
580.0 340.0
580.0 370.0
580.0 400.0
591.0 73.0
591.0 124.0
591.0 164.0
599.0 38.0
599.0 64.0
599.0 89.0
599.0 113.0
599.0 135.0
599.0 156.0
599.0 175.0
599.0 198.0
599.0 222.0
599.0 247.0
599.0 272.0
599.0 297.0
599.0 322.0
599.0 349.0
599.0 378.0
607.0 63.0
607.0 110.0
607.0 143.0
607.0 169.0
607.0 194.0
607.0 218.0
607.0 242.0
607.0 267.0
607.0 292.0
607.0 318.0
607.0 346.0
607.0 374.0
679.0 359.0
680.0 7.0
680.0 12.0
680.0 16.0
680.0 20.0
680.0 24.0
680.0 28.0
680.0 32.0
680.0 36.0
680.0 40.0
680.0 44.0
680.0 48.0
680.0 52.0
680.0 56.0
680.0 60.0
680.0 64.0
680.0 68.0
680.0 72.0
680.0 76.0
680.0 80.0
680.0 84.0
680.0 88.0
680.0 92.0
680.0 96.0
680.0 100.0
680.0 104.0
680.0 108.0
680.0 111.0
680.0 115.0
680.0 119.0
680.0 122.0
680.0 126.0
680.0 130.0
680.0 134.0
680.0 137.0
680.0 141.0
680.0 144.0
680.0 148.0
680.0 151.0
680.0 154.0
680.0 157.0
680.0 160.0
680.0 163.0
680.0 166.0
680.0 169.0
680.0 172.0
680.0 175.0
680.0 178.0
680.0 181.0
680.0 184.0
680.0 187.0
680.0 190.0
680.0 193.0
680.0 196.0
680.0 199.0
680.0 202.0
680.0 205.0
680.0 208.0
680.0 211.0
680.0 214.0
680.0 217.0
680.0 220.0
680.0 223.0
680.0 226.0
680.0 229.0
680.0 232.0
680.0 235.0
680.0 238.0
680.0 241.0
680.0 244.0
680.0 247.0
680.0 250.0
680.0 253.0
680.0 256.0
680.0 259.0
680.0 262.0
680.0 265.0
680.0 268.0
680.0 271.0
680.0 274.0
680.0 277.0
680.0 280.0
680.0 283.0
680.0 286.0
680.0 289.0
680.0 292.0
680.0 295.0
680.0 298.0
680.0 301.0
680.0 304.0
680.0 307.0
680.0 310.0
680.0 313.0
680.0 316.0
680.0 319.0
680.0 322.0
680.0 325.0
680.0 328.0
680.0 331.0
680.0 334.0
680.0 337.0
680.0 340.0
680.0 343.0
680.0 346.0
680.0 349.0
680.0 352.0
680.0 355.0
680.0 358.0
680.0 361.0
680.0 364.0
680.0 367.0
680.0 370.0
680.0 373.0
680.0 376.0
680.0 379.0
680.0 382.0
680.0 385.0
680.0 388.0
680.0 391.0
680.0 394.0
680.0 397.0
687.0 207.0
687.0 303.0
704.0 199.0
704.0 290.0
709.0 64.0
709.0 111.0
709.0 144.0
709.0 170.0
709.0 194.0
709.0 218.0
709.0 242.0
709.0 265.0
709.0 289.0
709.0 313.0
709.0 340.0
709.0 368.0
709.0 397.0
714.0 86.0
714.0 141.0
714.0 179.0
714.0 214.0
714.0 250.0
714.0 284.0
714.0 319.0
714.0 357.0
714.0 397.0
718.0 64.0
718.0 111.0
718.0 145.0
718.0 171.0
718.0 195.0
718.0 220.0
718.0 245.0
718.0 270.0
718.0 295.0
718.0 321.0
718.0 350.0
718.0 379.0
736.0 71.0
736.0 121.0
736.0 166.0
738.0 107.0
738.0 158.0
738.0 194.0
738.0 227.0
738.0 262.0
738.0 298.0
738.0 332.0
738.0 370.0
763.0 9.0
763.0 15.0
763.0 21.0
763.0 28.0
763.0 36.0
763.0 44.0
763.0 52.0
763.0 60.0
763.0 68.0
763.0 76.0
763.0 84.0
763.0 92.0
763.0 100.0
763.0 108.0
763.0 116.0
763.0 124.0
763.0 132.0
763.0 141.0
763.0 151.0
763.0 161.0
807.0 209.0
807.0 303.0
837.0 232.0
841.0 122.0
842.0 114.0
842.0 162.0
842.0 199.0
842.0 234.0
842.0 271.0
842.0 305.0
842.0 340.0
842.0 382.0
843.0 77.0
843.0 140.0
852.0 77.0
852.0 131.0
852.0 168.0
852.0 202.0
852.0 236.0
852.0 268.0
852.0 300.0
852.0 332.0
852.0 369.0
857.0 90.0
857.0 143.0
857.0 178.0
857.0 210.0
857.0 241.0
857.0 272.0
857.0 302.0
857.0 334.0
857.0 368.0
860.0 66.0
860.0 113.0
860.0 156.0
860.0 205.0
860.0 264.0
860.0 330.0
860.0 387.0
861.0 121.0
861.0 172.0
866.0 39.0
866.0 66.0
866.0 94.0
866.0 121.0
866.0 147.0
866.0 171.0
866.0 203.0
866.0 235.0
866.0 268.0
866.0 299.0
866.0 331.0
866.0 367.0
941.0 92.0
941.0 154.0
941.0 190.0
941.0 227.0
941.0 262.0
941.0 298.0
941.0 333.0
941.0 377.0
949.0 74.0
949.0 123.0
949.0 162.0
949.0 191.0
949.0 220.0
949.0 250.0
949.0 279.0
949.0 308.0
949.0 338.0
949.0 371.0
950.0 122.0
950.0 169.0
950.0 206.0
950.0 242.0
950.0 281.0
950.0 316.0
950.0 358.0
950.0 400.0
959.0 90.0
959.0 147.0
959.0 183.0
959.0 217.0
959.0 250.0
959.0 283.0
959.0 316.0
959.0 351.0
959.0 388.0
973.0 81.0
973.0 138.0
973.0 176.0
973.0 209.0
973.0 242.0
973.0 275.0
973.0 308.0
973.0 339.0
973.0 377.0
991.0 85.0
991.0 142.0
991.0 177.0
991.0 210.0
991.0 243.0
991.0 276.0
991.0 309.0
991.0 343.0
991.0 380.0
1068.0 100.0
1068.0 154.0
1068.0 188.0
1068.0 221.0
1068.0 254.0
1068.0 289.0
1068.0 323.0
1068.0 361.0
1068.0 400.0
1075.0 109.0
1075.0 162.0
1075.0 197.0
1075.0 230.0
1075.0 266.0
1075.0 300.0
1075.0 338.0
1075.0 379.0
1087.0 114.0
1087.0 162.0
1087.0 199.0
1087.0 235.0
1087.0 271.0
1087.0 306.0
1087.0 341.0
1087.0 379.0
1088.0 123.0
1088.0 169.0
1088.0 209.0
1088.0 249.0
1088.0 289.0
1088.0 329.0
1088.0 376.0
1105.0 73.0
1105.0 122.0
1105.0 160.0
1105.0 189.0
1105.0 219.0
1105.0 249.0
1105.0 280.0
1105.0 312.0
1105.0 343.0
1105.0 376.0
1114.0 73.0
1114.0 120.0
1114.0 159.0
1114.0 191.0
1114.0 222.0
1114.0 254.0
1114.0 285.0
1114.0 316.0
1114.0 347.0
1114.0 384.0
1118.0 114.0
1118.0 162.0
1118.0 195.0
1118.0 228.0
1118.0 264.0
1118.0 297.0
1118.0 330.0
1118.0 367.0
1135.0 128.0
1135.0 175.0
1135.0 215.0
1135.0 255.0
1135.0 295.0
1135.0 335.0
1135.0 379.0
1204.0 90.0
1204.0 146.0
1204.0 181.0
1204.0 216.0
1204.0 249.0
1204.0 282.0
1204.0 315.0
1204.0 348.0
1204.0 387.0
1222.0 82.0
1222.0 141.0
1222.0 177.0
1222.0 209.0
1222.0 241.0
1222.0 274.0
1222.0 307.0
1222.0 340.0
1222.0 376.0
1226.0 77.0
1226.0 128.0
1226.0 167.0
1226.0 200.0
1226.0 233.0
1226.0 264.0
1226.0 296.0
1226.0 328.0
1226.0 365.0
1254.0 90.0
1254.0 147.0
1254.0 183.0
1254.0 217.0
1254.0 251.0
1254.0 287.0
1254.0 321.0
1254.0 358.0
1254.0 398.0
1337.0 87.0
1337.0 144.0
1337.0 179.0
1337.0 212.0
1337.0 245.0
1337.0 279.0
1337.0 312.0
1337.0 346.0
1337.0 385.0
1340.0 89.0
1340.0 144.0
1340.0 180.0
1340.0 215.0
1340.0 249.0
1340.0 282.0
1340.0 315.0
1340.0 349.0
1340.0 387.0
1345.0 87.0
1345.0 143.0
1345.0 179.0
1345.0 212.0
1345.0 246.0
1345.0 279.0
1345.0 311.0
1345.0 344.0
1345.0 383.0
1417.0 121.0
1417.0 169.0
1417.0 208.0
1417.0 248.0
1417.0 288.0
1417.0 325.0
1417.0 367.0
1418.0 91.0
1418.0 150.0
1418.0 185.0
1418.0 220.0
1418.0 256.0
1418.0 290.0
1418.0 325.0
1418.0 364.0
1423.0 96.0
1423.0 152.0
1423.0 188.0
1423.0 223.0
1423.0 258.0
1423.0 293.0
1423.0 328.0
1423.0 367.0
1442.0 9.0
1442.0 15.0
1442.0 21.0
1442.0 28.0
1442.0 36.0
1442.0 44.0
1442.0 52.0
1442.0 60.0
1442.0 68.0
1442.0 76.0
1442.0 84.0
1442.0 92.0
1442.0 100.0
1442.0 108.0
1442.0 116.0
1442.0 124.0
1442.0 132.0
1442.0 140.0
1442.0 148.0
1442.0 156.0
1442.0 164.0
1442.0 172.0
1442.0 180.0
1442.0 188.0
1442.0 196.0
1442.0 204.0
1442.0 212.0
1442.0 220.0
1442.0 228.0
1442.0 236.0
1442.0 244.0
1442.0 252.0
1442.0 260.0
1442.0 268.0
1442.0 276.0
1442.0 284.0
1442.0 292.0
1442.0 300.0
1442.0 308.0
1442.0 316.0
1442.0 324.0
1442.0 332.0
1442.0 341.0
1442.0 351.0
1442.0 361.0
1442.0 371.0
1442.0 381.0
1442.0 391.0
