14.0 44.0
14.0 72.0
14.0 100.0
14.0 131.0
14.0 171.0
14.0 214.0
26.0 6.0
26.0 10.0
26.0 13.0
26.0 17.0
26.0 20.0
26.0 24.0
26.0 27.0
26.0 30.0
26.0 33.0
26.0 36.0
26.0 39.0
26.0 42.0
26.0 45.0
26.0 48.0
26.0 51.0
26.0 54.0
26.0 57.0
26.0 60.0
26.0 63.0
26.0 66.0
26.0 69.0
26.0 72.0
26.0 75.0
26.0 78.0
26.0 81.0
26.0 84.0
26.0 87.0
26.0 90.0
26.0 93.0
26.0 96.0
26.0 99.0
26.0 102.0
26.0 105.0
26.0 108.0
26.0 111.0
26.0 114.0
26.0 118.0
26.0 122.0
26.0 126.0
26.0 129.0
26.0 133.0
26.0 137.0
26.0 140.0
26.0 144.0
26.0 148.0
26.0 152.0
26.0 156.0
26.0 160.0
26.0 164.0
26.0 168.0
26.0 172.0
26.0 176.0
26.0 180.0
26.0 184.0
26.0 188.0
26.0 192.0
26.0 196.0
26.0 200.0
26.0 204.0
26.0 208.0
26.0 212.0
26.0 216.0
26.0 220.0
26.0 224.0
26.0 228.0
26.0 232.0
26.0 236.0
26.0 240.0
26.0 244.0
26.0 248.0
26.0 252.0
26.0 256.0
26.0 261.0
26.0 265.0
26.0 271.0
26.0 276.0
26.0 281.0
26.0 287.0
26.0 293.0
26.0 299.0
26.0 305.0
26.0 311.0
26.0 317.0
26.0 323.0
26.0 329.0
26.0 335.0
26.0 341.0
26.0 347.0
26.0 353.0
26.0 361.0
26.0 369.0
26.0 377.0
26.0 385.0
26.0 393.0
62.0 45.0
62.0 74.0
62.0 102.0
62.0 135.0
62.0 178.0
62.0 230.0
85.0 107.0
87.0 45.0
87.0 75.0
87.0 104.0
87.0 142.0
87.0 186.0
87.0 255.0
112.0 43.0
112.0 70.0
112.0 97.0
112.0 127.0
112.0 166.0
112.0 198.0
112.0 234.0
112.0 275.0
112.0 320.0
129.0 45.0
129.0 72.0
129.0 99.0
129.0 130.0
129.0 171.0
129.0 205.0
129.0 239.0
129.0 284.0
129.0 329.0
157.0 46.0
157.0 75.0
157.0 104.0
157.0 140.0
157.0 183.0
157.0 246.0
159.0 45.0
159.0 74.0
159.0 103.0
159.0 135.0
159.0 178.0
159.0 231.0
165.0 47.0
165.0 80.0
165.0 113.0
165.0 165.0
166.0 45.0
166.0 74.0
166.0 104.0
166.0 140.0
166.0 183.0
166.0 246.0
167.0 45.0
167.0 74.0
167.0 103.0
167.0 139.0
167.0 185.0
167.0 253.0
185.0 45.0
185.0 73.0
185.0 100.0
185.0 132.0
185.0 172.0
185.0 213.0
206.0 109.0
217.0 44.0
217.0 72.0
217.0 99.0
217.0 132.0
217.0 171.0
217.0 207.0
217.0 240.0
217.0 280.0
217.0 321.0
224.0 45.0
224.0 71.0
224.0 98.0
224.0 125.0
224.0 162.0
224.0 194.0
224.0 225.0
224.0 258.0
224.0 296.0
224.0 337.0
227.0 45.0
227.0 75.0
227.0 105.0
227.0 143.0
227.0 184.0
227.0 220.0
227.0 259.0
227.0 305.0
231.0 109.0
232.0 45.0
232.0 71.0
232.0 97.0
232.0 124.0
232.0 156.0
232.0 187.0
232.0 217.0
232.0 249.0
232.0 285.0
232.0 320.0
241.0 45.0
241.0 72.0
241.0 99.0
241.0 129.0
241.0 165.0
241.0 196.0
241.0 226.0
241.0 257.0
241.0 293.0
241.0 334.0
258.0 45.0
258.0 74.0
258.0 102.0
258.0 136.0
258.0 175.0
258.0 210.0
258.0 245.0
258.0 287.0
258.0 329.0
259.0 45.0
259.0 74.0
259.0 104.0
259.0 139.0
259.0 178.0
259.0 214.0
259.0 249.0
259.0 292.0
286.0 46.0
286.0 74.0
286.0 103.0
286.0 135.0
286.0 176.0
286.0 230.0
296.0 44.0
296.0 71.0
296.0 97.0
296.0 121.0
296.0 151.0
296.0 186.0
296.0 226.0
303.0 45.0
303.0 71.0
303.0 96.0
303.0 120.0
303.0 153.0
303.0 190.0
303.0 238.0
306.0 45.0
306.0 74.0
306.0 103.0
306.0 139.0
306.0 182.0
306.0 237.0
318.0 108.0
328.0 43.0
328.0 71.0
328.0 99.0
328.0 133.0
328.0 172.0
328.0 210.0
328.0 245.0
328.0 290.0
328.0 328.0
334.0 45.0
334.0 75.0
334.0 103.0
334.0 137.0
334.0 176.0
334.0 211.0
334.0 243.0
334.0 284.0
334.0 322.0
347.0 33.0
347.0 51.0
347.0 68.0
347.0 85.0
347.0 102.0
347.0 118.0
347.0 139.0
347.0 159.0
347.0 179.0
347.0 197.0
347.0 216.0
347.0 237.0
347.0 259.0
347.0 284.0
347.0 309.0
347.0 334.0
347.0 366.0
366.0 46.0
366.0 74.0
366.0 103.0
366.0 133.0
366.0 170.0
366.0 204.0
366.0 238.0
366.0 275.0
366.0 315.0
382.0 47.0
382.0 77.0
382.0 107.0
382.0 146.0
382.0 188.0
382.0 226.0
382.0 266.0
382.0 312.0
428.0 48.0
428.0 78.0
428.0 108.0
428.0 149.0
428.0 197.0
434.0 45.0
434.0 75.0
434.0 104.0
434.0 142.0
434.0 188.0
435.0 45.0
435.0 73.0
435.0 101.0
435.0 134.0
435.0 177.0
435.0 228.0
450.0 43.0
450.0 69.0
450.0 96.0
450.0 123.0
450.0 162.0
450.0 201.0
450.0 253.0
456.0 200.0
456.0 309.0
477.0 46.0
477.0 75.0
477.0 105.0
477.0 137.0
477.0 178.0
477.0 246.0
487.0 45.0
487.0 72.0
487.0 99.0
487.0 124.0
487.0 165.0
487.0 201.0
487.0 235.0
487.0 273.0
487.0 316.0
558.0 47.0
558.0 75.0
558.0 102.0
558.0 135.0
558.0 174.0
558.0 218.0
580.0 48.0
580.0 78.0
580.0 108.0
580.0 146.0
580.0 194.0
591.0 184.0
591.0 300.0
595.0 113.0
599.0 33.0
599.0 51.0
599.0 69.0
599.0 87.0
599.0 105.0
599.0 123.0
599.0 143.0
599.0 164.0
599.0 184.0
599.0 204.0
599.0 224.0
599.0 246.0
599.0 270.0
599.0 295.0
599.0 318.0
599.0 347.0
599.0 382.0
605.0 44.0
605.0 70.0
605.0 95.0
605.0 120.0
605.0 153.0
605.0 185.0
605.0 215.0
605.0 246.0
605.0 286.0
605.0 323.0
607.0 47.0
607.0 76.0
607.0 105.0
607.0 138.0
607.0 181.0
607.0 245.0
623.0 47.0
623.0 76.0
623.0 104.0
623.0 137.0
623.0 174.0
623.0 208.0
623.0 243.0
623.0 283.0
623.0 324.0
632.0 44.0
632.0 71.0
632.0 96.0
632.0 124.0
632.0 158.0
632.0 190.0
632.0 221.0
632.0 252.0
632.0 287.0
632.0 325.0
680.0 9.0
680.0 15.0
680.0 21.0
680.0 27.0
680.0 33.0
680.0 39.0
680.0 45.0
680.0 51.0
680.0 57.0
680.0 63.0
680.0 69.0
680.0 75.0
680.0 81.0
680.0 87.0
680.0 93.0
680.0 99.0
680.0 105.0
680.0 111.0
680.0 117.0
680.0 123.0
680.0 129.0
680.0 135.0
680.0 141.0
680.0 147.0
680.0 153.0
680.0 159.0
680.0 165.0
680.0 171.0
680.0 177.0
680.0 183.0
680.0 189.0
680.0 195.0
680.0 201.0
680.0 207.0
680.0 215.0
680.0 223.0
680.0 231.0
680.0 239.0
680.0 247.0
680.0 255.0
680.0 263.0
680.0 271.0
680.0 279.0
680.0 287.0
680.0 295.0
680.0 303.0
680.0 311.0
680.0 319.0
680.0 327.0
680.0 335.0
680.0 343.0
680.0 351.0
680.0 359.0
680.0 367.0
680.0 375.0
680.0 383.0
680.0 389.0
696.0 47.0
696.0 72.0
696.0 96.0
696.0 121.0
696.0 146.0
696.0 175.0
696.0 202.0
696.0 230.0
696.0 258.0
696.0 291.0
708.0 49.0
708.0 81.0
708.0 112.0
708.0 155.0
708.0 198.0
708.0 238.0
708.0 288.0
709.0 48.0
709.0 76.0
709.0 103.0
709.0 133.0
709.0 174.0
709.0 218.0
714.0 115.0
714.0 159.0
714.0 201.0
714.0 263.0
718.0 46.0
718.0 73.0
718.0 99.0
718.0 125.0
718.0 163.0
718.0 203.0
718.0 254.0
725.0 95.0
725.0 142.0
725.0 178.0
725.0 210.0
725.0 243.0
725.0 276.0
725.0 302.0
725.0 335.0
725.0 390.0
733.0 112.0
734.0 46.0
734.0 70.0
734.0 93.0
734.0 116.0
734.0 142.0
734.0 167.0
734.0 192.0
734.0 218.0
734.0 246.0
734.0 274.0
734.0 311.0
735.0 86.0
735.0 142.0
735.0 178.0
735.0 210.0
735.0 243.0
735.0 278.0
735.0 306.0
735.0 341.0
735.0 392.0
736.0 109.0
736.0 183.0
736.0 294.0
738.0 117.0
738.0 166.0
738.0 210.0
738.0 287.0
744.0 46.0
744.0 72.0
744.0 97.0
744.0 121.0
744.0 148.0
744.0 175.0
744.0 202.0
744.0 230.0
744.0 258.0
744.0 290.0
745.0 47.0
745.0 76.0
745.0 103.0
745.0 135.0
745.0 172.0
745.0 206.0
745.0 241.0
745.0 282.0
745.0 324.0
763.0 9.0
763.0 15.0
763.0 21.0
763.0 27.0
763.0 33.0
763.0 39.0
763.0 45.0
763.0 51.0
763.0 57.0
763.0 63.0
763.0 69.0
763.0 75.0
763.0 81.0
763.0 87.0
763.0 93.0
763.0 99.0
763.0 105.0
763.0 111.0
763.0 117.0
763.0 123.0
763.0 129.0
763.0 135.0
763.0 141.0
763.0 147.0
763.0 153.0
763.0 159.0
763.0 164.0
763.0 169.0
763.0 174.0
763.0 179.0
763.0 184.0
763.0 189.0
763.0 194.0
763.0 199.0
763.0 204.0
763.0 209.0
763.0 214.0
763.0 219.0
763.0 224.0
763.0 229.0
763.0 234.0
763.0 239.0
763.0 244.0
763.0 249.0
763.0 254.0
763.0 259.0
763.0 264.0
763.0 269.0
763.0 274.0
763.0 278.0
763.0 282.0
763.0 286.0
763.0 290.0
763.0 294.0
763.0 298.0
763.0 302.0
763.0 306.0
763.0 310.0
763.0 314.0
763.0 318.0
763.0 322.0
763.0 327.0
763.0 331.0
763.0 337.0
763.0 342.0
763.0 347.0
763.0 352.0
763.0 357.0
763.0 362.0
763.0 367.0
763.0 372.0
763.0 377.0
763.0 382.0
763.0 387.0
763.0 392.0
842.0 138.0
842.0 187.0
843.0 182.0
843.0 300.0
852.0 121.0
852.0 170.0
852.0 212.0
852.0 292.0
857.0 95.0
857.0 142.0
857.0 178.0
857.0 213.0
857.0 263.0
860.0 110.0
860.0 178.0
860.0 286.0
861.0 189.0
861.0 303.0
866.0 45.0
866.0 70.0
866.0 95.0
866.0 119.0
866.0 141.0
866.0 162.0
866.0 181.0
866.0 201.0
866.0 221.0
866.0 244.0
866.0 265.0
866.0 286.0
866.0 305.0
866.0 325.0
866.0 349.0
866.0 375.0
866.0 398.0
880.0 95.0
880.0 142.0
880.0 178.0
880.0 210.0
880.0 243.0
880.0 275.0
880.0 301.0
880.0 329.0
880.0 379.0
941.0 121.0
941.0 174.0
941.0 262.0
949.0 86.0
949.0 139.0
949.0 176.0
949.0 213.0
949.0 276.0
950.0 142.0
950.0 193.0
950.0 293.0
959.0 100.0
959.0 153.0
959.0 201.0
959.0 294.0
973.0 109.0
973.0 153.0
973.0 193.0
973.0 252.0
973.0 310.0
991.0 111.0
991.0 156.0
991.0 195.0
991.0 253.0
991.0 308.0
1001.0 140.0
1001.0 183.0
1001.0 220.0
1001.0 258.0
1001.0 290.0
1001.0 319.0
1001.0 372.0
1012.0 98.0
1012.0 148.0
1012.0 184.0
1012.0 218.0
1012.0 252.0
1012.0 285.0
1012.0 313.0
1012.0 362.0
1016.0 137.0
1016.0 180.0
1016.0 217.0
1016.0 254.0
1016.0 289.0
1016.0 320.0
1016.0 379.0
1038.0 127.0
1038.0 170.0
1038.0 206.0
1038.0 242.0
1038.0 278.0
1038.0 306.0
1038.0 350.0
1068.0 121.0
1068.0 166.0
1068.0 207.0
1068.0 294.0
1075.0 121.0
1075.0 167.0
1075.0 211.0
1075.0 294.0
1087.0 133.0
1087.0 180.0
1087.0 299.0
1088.0 139.0
1088.0 186.0
1088.0 285.0
1105.0 88.0
1105.0 140.0
1105.0 177.0
1105.0 212.0
1105.0 268.0
1105.0 317.0
1114.0 87.0
1114.0 137.0
1114.0 177.0
1114.0 222.0
1114.0 279.0
1118.0 118.0
1118.0 164.0
1118.0 208.0
1118.0 300.0
1135.0 143.0
1135.0 196.0
1156.0 115.0
1156.0 162.0
1156.0 197.0
1156.0 232.0
1156.0 265.0
1156.0 293.0
1156.0 322.0
1156.0 372.0
1165.0 127.0
1165.0 169.0
1165.0 205.0
1165.0 242.0
1165.0 278.0
1165.0 309.0
1165.0 356.0
1172.0 116.0
1172.0 161.0
1172.0 197.0
1172.0 233.0
1172.0 269.0
1172.0 298.0
1172.0 331.0
1172.0 383.0
1204.0 134.0
1204.0 182.0
1204.0 261.0
1222.0 94.0
1222.0 144.0
1222.0 184.0
1222.0 232.0
1222.0 296.0
1226.0 88.0
1226.0 140.0
1226.0 177.0
1226.0 212.0
1226.0 276.0
1251.0 113.0
1251.0 159.0
1251.0 192.0
1251.0 226.0
1251.0 260.0
1251.0 292.0
1251.0 320.0
1251.0 373.0
1253.0 135.0
1253.0 179.0
1253.0 219.0
1253.0 255.0
1253.0 291.0
1253.0 323.0
1253.0 383.0
1254.0 117.0
1254.0 161.0
1254.0 203.0
1254.0 271.0
1337.0 107.0
1337.0 154.0
1337.0 196.0
1337.0 256.0
1340.0 123.0
1340.0 167.0
1340.0 212.0
1340.0 295.0
1345.0 135.0
1345.0 183.0
1345.0 255.0
1390.0 136.0
1390.0 176.0
1390.0 211.0
1390.0 247.0
1390.0 283.0
1390.0 311.0
1390.0 356.0
1404.0 125.0
1404.0 170.0
1404.0 206.0
1404.0 241.0
1404.0 277.0
1404.0 306.0
1404.0 349.0
1417.0 142.0
1417.0 196.0
1418.0 136.0
1418.0 184.0
1418.0 264.0
1423.0 135.0
1423.0 183.0
1423.0 255.0
1442.0 9.0
1442.0 15.0
1442.0 21.0
1442.0 27.0
1442.0 33.0
1442.0 39.0
1442.0 44.0
1442.0 49.0
1442.0 54.0
1442.0 59.0
1442.0 64.0
1442.0 69.0
1442.0 74.0
1442.0 79.0
1442.0 84.0
1442.0 89.0
1442.0 94.0
1442.0 99.0
1442.0 104.0
1442.0 109.0
1442.0 114.0
1442.0 119.0
1442.0 124.0
1442.0 128.0
1442.0 132.0
1442.0 136.0
1442.0 140.0
1442.0 144.0
1442.0 148.0
1442.0 152.0
1442.0 156.0
1442.0 160.0
1442.0 164.0
1442.0 168.0
1442.0 172.0
1442.0 176.0
1442.0 180.0
1442.0 184.0
1442.0 188.0
1442.0 192.0
1442.0 196.0
1442.0 200.0
1442.0 204.0
1442.0 208.0
1442.0 212.0
1442.0 216.0
1442.0 220.0
1442.0 224.0
1442.0 228.0
1442.0 232.0
1442.0 236.0
1442.0 240.0
1442.0 244.0
1442.0 248.0
1442.0 252.0
1442.0 256.0
1442.0 260.0
1442.0 264.0
1442.0 268.0
1442.0 272.0
1442.0 276.0
1442.0 280.0
1442.0 284.0
1442.0 288.0
1442.0 292.0
1442.0 296.0
1442.0 300.0
1442.0 304.0
1442.0 308.0
1442.0 313.0
1442.0 317.0
1442.0 323.0
1442.0 328.0
1442.0 333.0
1442.0 338.0
1442.0 343.0
1442.0 348.0
1442.0 353.0
1442.0 358.0
1442.0 363.0
1442.0 368.0
1442.0 373.0
1442.0 378.0
1442.0 383.0
1442.0 388.0
1442.0 393.0
