14.0 100.0
14.0 148.0
14.0 181.0
14.0 222.0
14.0 264.0
14.0 305.0
14.0 344.0
14.0 385.0
26.0 7.0
26.0 13.0
26.0 18.0
26.0 23.0
26.0 28.0
26.0 33.0
26.0 38.0
26.0 43.0
26.0 48.0
26.0 53.0
26.0 58.0
26.0 63.0
26.0 68.0
26.0 73.0
26.0 78.0
26.0 83.0
26.0 88.0
26.0 93.0
26.0 98.0
26.0 103.0
26.0 108.0
26.0 113.0
26.0 118.0
26.0 123.0
26.0 128.0
26.0 133.0
26.0 138.0
26.0 143.0
26.0 148.0
26.0 153.0
26.0 158.0
26.0 163.0
26.0 168.0
26.0 173.0
26.0 178.0
26.0 183.0
26.0 189.0
26.0 195.0
26.0 201.0
26.0 207.0
26.0 213.0
26.0 219.0
26.0 225.0
26.0 231.0
26.0 237.0
26.0 243.0
26.0 249.0
26.0 255.0
26.0 261.0
26.0 267.0
26.0 273.0
26.0 279.0
26.0 285.0
26.0 291.0
26.0 297.0
26.0 303.0
26.0 309.0
26.0 315.0
26.0 321.0
26.0 327.0
26.0 333.0
26.0 339.0
26.0 345.0
26.0 351.0
26.0 357.0
26.0 363.0
26.0 369.0
26.0 375.0
26.0 381.0
26.0 387.0
26.0 393.0
62.0 98.0
62.0 148.0
62.0 183.0
62.0 224.0
62.0 267.0
62.0 308.0
62.0 351.0
62.0 393.0
87.0 115.0
87.0 157.0
87.0 193.0
87.0 240.0
87.0 285.0
87.0 326.0
87.0 368.0
112.0 60.0
112.0 96.0
112.0 129.0
112.0 159.0
112.0 184.0
112.0 209.0
112.0 234.0
112.0 258.0
112.0 283.0
112.0 308.0
112.0 334.0
112.0 360.0
112.0 384.0
121.0 246.0
129.0 61.0
129.0 97.0
129.0 132.0
129.0 162.0
129.0 186.0
129.0 215.0
129.0 243.0
129.0 272.0
129.0 300.0
129.0 327.0
129.0 355.0
129.0 383.0
139.0 247.0
139.0 377.0
157.0 113.0
157.0 155.0
157.0 190.0
157.0 233.0
157.0 275.0
157.0 319.0
157.0 359.0
159.0 112.0
159.0 155.0
159.0 190.0
159.0 234.0
159.0 279.0
159.0 322.0
159.0 366.0
165.0 134.0
165.0 179.0
165.0 243.0
165.0 304.0
165.0 375.0
166.0 113.0
166.0 156.0
166.0 191.0
166.0 236.0
166.0 279.0
166.0 323.0
166.0 368.0
167.0 117.0
167.0 159.0
167.0 198.0
167.0 243.0
167.0 287.0
167.0 332.0
167.0 375.0
185.0 87.0
185.0 138.0
185.0 172.0
185.0 208.0
185.0 247.0
185.0 283.0
185.0 320.0
185.0 360.0
185.0 397.0
217.0 56.0
217.0 91.0
217.0 126.0
217.0 157.0
217.0 181.0
217.0 206.0
217.0 232.0
217.0 259.0
217.0 286.0
217.0 312.0
217.0 337.0
217.0 362.0
217.0 390.0
224.0 59.0
224.0 91.0
224.0 124.0
224.0 152.0
224.0 176.0
224.0 199.0
224.0 223.0
224.0 247.0
224.0 272.0
224.0 296.0
224.0 319.0
224.0 343.0
224.0 367.0
224.0 391.0
227.0 59.0
227.0 96.0
227.0 132.0
227.0 163.0
227.0 188.0
227.0 216.0
227.0 246.0
227.0 274.0
227.0 302.0
227.0 330.0
227.0 358.0
227.0 385.0
232.0 56.0
232.0 88.0
232.0 118.0
232.0 147.0
232.0 171.0
232.0 193.0
232.0 217.0
232.0 240.0
232.0 264.0
232.0 289.0
232.0 312.0
232.0 335.0
232.0 358.0
232.0 383.0
235.0 199.0
235.0 271.0
235.0 340.0
241.0 57.0
241.0 88.0
241.0 120.0
241.0 149.0
241.0 173.0
241.0 194.0
241.0 217.0
241.0 241.0
241.0 265.0
241.0 289.0
241.0 312.0
241.0 335.0
241.0 356.0
241.0 380.0
258.0 59.0
258.0 94.0
258.0 128.0
258.0 159.0
258.0 184.0
258.0 211.0
258.0 239.0
258.0 266.0
258.0 292.0
258.0 320.0
258.0 346.0
258.0 373.0
258.0 400.0
259.0 58.0
259.0 95.0
259.0 133.0
259.0 164.0
259.0 189.0
259.0 216.0
259.0 246.0
259.0 274.0
259.0 302.0
259.0 332.0
259.0 360.0
259.0 388.0
286.0 90.0
286.0 140.0
286.0 175.0
286.0 219.0
286.0 262.0
286.0 303.0
286.0 347.0
286.0 394.0
296.0 91.0
296.0 136.0
296.0 168.0
296.0 200.0
296.0 234.0
296.0 269.0
296.0 303.0
296.0 338.0
296.0 374.0
303.0 74.0
303.0 120.0
303.0 156.0
303.0 185.0
303.0 217.0
303.0 250.0
303.0 284.0
303.0 320.0
303.0 352.0
303.0 386.0
306.0 97.0
306.0 147.0
306.0 182.0
306.0 224.0
306.0 266.0
306.0 310.0
306.0 352.0
306.0 394.0
328.0 56.0
328.0 88.0
328.0 124.0
328.0 158.0
328.0 183.0
328.0 211.0
328.0 240.0
328.0 269.0
328.0 297.0
328.0 324.0
328.0 353.0
328.0 383.0
334.0 57.0
334.0 92.0
334.0 124.0
334.0 154.0
334.0 178.0
334.0 203.0
334.0 227.0
334.0 252.0
334.0 277.0
334.0 301.0
334.0 326.0
334.0 351.0
334.0 377.0
344.0 278.0
347.0 37.0
347.0 58.0
347.0 77.0
347.0 97.0
347.0 115.0
347.0 132.0
347.0 148.0
347.0 162.0
347.0 176.0
347.0 190.0
347.0 204.0
347.0 218.0
347.0 232.0
347.0 246.0
347.0 260.0
347.0 274.0
347.0 288.0
347.0 303.0
347.0 318.0
347.0 332.0
347.0 346.0
347.0 360.0
347.0 375.0
347.0 389.0
366.0 58.0
366.0 90.0
366.0 123.0
366.0 152.0
366.0 177.0
366.0 199.0
366.0 223.0
366.0 247.0
366.0 271.0
366.0 296.0
366.0 321.0
366.0 345.0
366.0 368.0
366.0 393.0
368.0 227.0
368.0 329.0
377.0 191.0
377.0 263.0
377.0 333.0
377.0 398.0
382.0 59.0
382.0 98.0
382.0 138.0
382.0 168.0
382.0 195.0
382.0 225.0
382.0 254.0
382.0 285.0
382.0 315.0
382.0 345.0
382.0 375.0
383.0 189.0
383.0 246.0
383.0 297.0
383.0 356.0
428.0 110.0
428.0 153.0
428.0 186.0
428.0 225.0
428.0 264.0
428.0 304.0
428.0 345.0
428.0 385.0
434.0 114.0
434.0 158.0
434.0 195.0
434.0 242.0
434.0 287.0
434.0 328.0
434.0 369.0
435.0 98.0
435.0 144.0
435.0 178.0
435.0 214.0
435.0 248.0
435.0 282.0
435.0 320.0
435.0 352.0
435.0 392.0
449.0 200.0
449.0 276.0
449.0 344.0
449.0 399.0
450.0 71.0
450.0 121.0
450.0 157.0
450.0 188.0
450.0 225.0
450.0 261.0
450.0 297.0
450.0 333.0
450.0 369.0
456.0 69.0
456.0 113.0
456.0 147.0
456.0 170.0
456.0 191.0
456.0 211.0
456.0 233.0
456.0 254.0
456.0 275.0
456.0 296.0
456.0 317.0
456.0 338.0
456.0 359.0
456.0 380.0
466.0 188.0
466.0 247.0
466.0 301.0
466.0 355.0
468.0 196.0
468.0 271.0
468.0 342.0
474.0 205.0
474.0 274.0
474.0 340.0
475.0 186.0
475.0 241.0
475.0 298.0
475.0 364.0
477.0 99.0
477.0 148.0
477.0 184.0
477.0 225.0
477.0 273.0
477.0 321.0
477.0 368.0
478.0 221.0
478.0 299.0
478.0 377.0
487.0 58.0
487.0 95.0
487.0 130.0
487.0 159.0
487.0 184.0
487.0 212.0
487.0 239.0
487.0 266.0
487.0 293.0
487.0 321.0
487.0 348.0
487.0 374.0
488.0 236.0
488.0 326.0
493.0 214.0
493.0 293.0
493.0 377.0
496.0 235.0
496.0 350.0
504.0 223.0
513.0 295.0
558.0 110.0
558.0 151.0
558.0 184.0
558.0 220.0
558.0 261.0
558.0 297.0
558.0 334.0
558.0 370.0
580.0 116.0
580.0 159.0
580.0 201.0
580.0 249.0
580.0 297.0
580.0 345.0
580.0 392.0
581.0 233.0
581.0 330.0
589.0 235.0
589.0 325.0
590.0 307.0
591.0 67.0
591.0 109.0
591.0 139.0
591.0 163.0
591.0 183.0
591.0 202.0
591.0 222.0
591.0 242.0
591.0 262.0
591.0 282.0
591.0 302.0
591.0 322.0
591.0 342.0
591.0 362.0
591.0 382.0
598.0 277.0
598.0 389.0
599.0 38.0
599.0 59.0
599.0 79.0
599.0 99.0
599.0 118.0
599.0 138.0
599.0 154.0
599.0 169.0
599.0 183.0
599.0 198.0
599.0 212.0
599.0 227.0
599.0 241.0
599.0 256.0
599.0 271.0
599.0 285.0
599.0 300.0
599.0 314.0
599.0 328.0
599.0 343.0
599.0 357.0
599.0 372.0
599.0 386.0
599.0 400.0
601.0 196.0
601.0 270.0
601.0 325.0
601.0 385.0
605.0 56.0
605.0 85.0
605.0 115.0
605.0 143.0
605.0 169.0
605.0 190.0
605.0 214.0
605.0 237.0
605.0 260.0
605.0 284.0
605.0 308.0
605.0 332.0
605.0 356.0
605.0 380.0
607.0 94.0
607.0 139.0
607.0 172.0
607.0 204.0
607.0 237.0
607.0 276.0
607.0 309.0
607.0 341.0
607.0 376.0
612.0 193.0
612.0 259.0
612.0 325.0
612.0 380.0
613.0 210.0
613.0 282.0
613.0 349.0
615.0 236.0
615.0 347.0
623.0 57.0
623.0 90.0
623.0 124.0
623.0 154.0
623.0 179.0
623.0 205.0
623.0 232.0
623.0 260.0
623.0 286.0
623.0 313.0
623.0 340.0
623.0 367.0
623.0 393.0
625.0 189.0
625.0 252.0
625.0 331.0
631.0 195.0
631.0 279.0
631.0 368.0
632.0 55.0
632.0 86.0
632.0 116.0
632.0 144.0
632.0 169.0
632.0 191.0
632.0 214.0
632.0 238.0
632.0 263.0
632.0 287.0
632.0 310.0
632.0 334.0
632.0 359.0
632.0 382.0
634.0 289.0
638.0 251.0
638.0 379.0
641.0 217.0
641.0 299.0
641.0 380.0
648.0 256.0
680.0 9.0
680.0 15.0
680.0 21.0
680.0 27.0
680.0 32.0
680.0 38.0
680.0 44.0
680.0 50.0
680.0 56.0
680.0 62.0
680.0 68.0
680.0 74.0
680.0 80.0
680.0 86.0
680.0 92.0
680.0 98.0
680.0 104.0
680.0 108.0
680.0 113.0
680.0 118.0
680.0 123.0
680.0 128.0
680.0 133.0
680.0 138.0
680.0 142.0
680.0 146.0
680.0 150.0
680.0 154.0
680.0 158.0
680.0 162.0
680.0 166.0
680.0 170.0
680.0 174.0
680.0 178.0
680.0 182.0
680.0 186.0
680.0 190.0
680.0 194.0
680.0 198.0
680.0 202.0
680.0 206.0
680.0 210.0
680.0 214.0
680.0 218.0
680.0 222.0
680.0 226.0
680.0 230.0
680.0 234.0
680.0 238.0
680.0 242.0
680.0 246.0
680.0 250.0
680.0 254.0
680.0 258.0
680.0 262.0
680.0 266.0
680.0 270.0
680.0 274.0
680.0 278.0
680.0 282.0
680.0 286.0
680.0 290.0
680.0 294.0
680.0 298.0
680.0 302.0
680.0 306.0
680.0 310.0
680.0 314.0
680.0 318.0
680.0 322.0
680.0 326.0
680.0 330.0
680.0 334.0
680.0 338.0
680.0 342.0
680.0 346.0
680.0 350.0
680.0 354.0
680.0 358.0
680.0 362.0
680.0 366.0
680.0 370.0
680.0 374.0
680.0 378.0
680.0 382.0
680.0 386.0
680.0 390.0
680.0 394.0
696.0 99.0
696.0 149.0
696.0 185.0
696.0 219.0
696.0 257.0
696.0 292.0
696.0 329.0
696.0 369.0
708.0 64.0
708.0 104.0
708.0 143.0
708.0 174.0
708.0 203.0
708.0 232.0
708.0 261.0
708.0 292.0
708.0 320.0
708.0 351.0
708.0 381.0
709.0 111.0
709.0 151.0
709.0 181.0
709.0 219.0
709.0 250.0
709.0 287.0
709.0 322.0
709.0 354.0
709.0 393.0
714.0 125.0
714.0 161.0
714.0 188.0
714.0 212.0
714.0 237.0
714.0 264.0
714.0 288.0
714.0 313.0
714.0 338.0
714.0 364.0
714.0 388.0
718.0 75.0
718.0 124.0
718.0 159.0
718.0 190.0
718.0 226.0
718.0 262.0
718.0 297.0
718.0 334.0
718.0 369.0
725.0 69.0
725.0 108.0
725.0 141.0
725.0 166.0
725.0 185.0
725.0 205.0
725.0 224.0
725.0 244.0
725.0 263.0
725.0 282.0
725.0 301.0
725.0 320.0
725.0 339.0
725.0 359.0
725.0 377.0
725.0 396.0
726.0 211.0
726.0 280.0
726.0 358.0
734.0 104.0
734.0 149.0
734.0 184.0
734.0 214.0
734.0 249.0
734.0 280.0
734.0 312.0
734.0 345.0
734.0 376.0
735.0 63.0
735.0 102.0
735.0 134.0
735.0 160.0
735.0 181.0
735.0 200.0
735.0 220.0
735.0 238.0
735.0 258.0
735.0 277.0
735.0 297.0
735.0 316.0
735.0 335.0
735.0 354.0
735.0 374.0
735.0 393.0
736.0 62.0
736.0 100.0
736.0 133.0
736.0 158.0
736.0 178.0
736.0 198.0
736.0 217.0
736.0 236.0
736.0 256.0
736.0 276.0
736.0 295.0
736.0 315.0
736.0 335.0
736.0 354.0
736.0 373.0
736.0 393.0
738.0 130.0
738.0 168.0
738.0 196.0
738.0 224.0
738.0 252.0
738.0 280.0
738.0 308.0
738.0 336.0
738.0 364.0
738.0 392.0
743.0 294.0
744.0 95.0
744.0 144.0
744.0 180.0
744.0 215.0
744.0 250.0
744.0 288.0
744.0 321.0
744.0 360.0
744.0 396.0
745.0 59.0
745.0 94.0
745.0 129.0
745.0 159.0
745.0 184.0
745.0 209.0
745.0 233.0
745.0 261.0
745.0 287.0
745.0 312.0
745.0 337.0
745.0 364.0
745.0 391.0
751.0 230.0
751.0 305.0
754.0 207.0
754.0 282.0
754.0 382.0
762.0 183.0
762.0 232.0
762.0 286.0
762.0 340.0
762.0 395.0
763.0 7.0
763.0 13.0
763.0 18.0
763.0 23.0
763.0 28.0
763.0 33.0
763.0 38.0
763.0 42.0
763.0 46.0
763.0 50.0
763.0 54.0
763.0 58.0
763.0 62.0
763.0 66.0
763.0 70.0
763.0 74.0
763.0 78.0
763.0 82.0
763.0 86.0
763.0 90.0
763.0 94.0
763.0 98.0
763.0 102.0
763.0 106.0
763.0 110.0
763.0 114.0
763.0 118.0
763.0 122.0
763.0 126.0
763.0 130.0
763.0 134.0
763.0 137.0
763.0 141.0
763.0 145.0
763.0 148.0
763.0 152.0
763.0 155.0
763.0 158.0
763.0 161.0
763.0 164.0
763.0 167.0
763.0 170.0
763.0 173.0
763.0 176.0
763.0 179.0
763.0 182.0
763.0 185.0
763.0 188.0
763.0 191.0
763.0 194.0
763.0 197.0
763.0 200.0
763.0 203.0
763.0 206.0
763.0 209.0
763.0 212.0
763.0 215.0
763.0 218.0
763.0 221.0
763.0 224.0
763.0 227.0
763.0 230.0
763.0 233.0
763.0 236.0
763.0 239.0
763.0 242.0
763.0 245.0
763.0 248.0
763.0 251.0
763.0 254.0
763.0 257.0
763.0 260.0
763.0 263.0
763.0 266.0
763.0 269.0
763.0 272.0
763.0 275.0
763.0 278.0
763.0 281.0
763.0 284.0
763.0 287.0
763.0 290.0
763.0 293.0
763.0 296.0
763.0 299.0
763.0 302.0
763.0 305.0
763.0 308.0
763.0 311.0
763.0 314.0
763.0 317.0
763.0 320.0
763.0 323.0
763.0 326.0
763.0 329.0
763.0 332.0
763.0 335.0
763.0 338.0
763.0 341.0
763.0 344.0
763.0 347.0
763.0 350.0
763.0 353.0
763.0 356.0
763.0 359.0
763.0 362.0
763.0 365.0
763.0 368.0
763.0 371.0
763.0 374.0
763.0 377.0
763.0 380.0
763.0 383.0
763.0 386.0
763.0 389.0
763.0 392.0
763.0 395.0
841.0 72.0
841.0 116.0
841.0 151.0
841.0 176.0
841.0 200.0
841.0 224.0
841.0 247.0
841.0 270.0
841.0 294.0
841.0 318.0
841.0 341.0
841.0 365.0
841.0 388.0
842.0 143.0
842.0 178.0
842.0 207.0
842.0 237.0
842.0 268.0
842.0 297.0
842.0 326.0
842.0 355.0
842.0 384.0
843.0 65.0
843.0 104.0
843.0 136.0
843.0 161.0
843.0 182.0
843.0 202.0
843.0 222.0
843.0 242.0
843.0 262.0
843.0 282.0
843.0 302.0
843.0 322.0
843.0 342.0
843.0 361.0
843.0 382.0
852.0 133.0
852.0 167.0
852.0 194.0
852.0 218.0
852.0 243.0
852.0 268.0
852.0 291.0
852.0 317.0
852.0 342.0
852.0 368.0
852.0 393.0
857.0 125.0
857.0 157.0
857.0 183.0
857.0 208.0
857.0 231.0
857.0 255.0
857.0 279.0
857.0 302.0
857.0 325.0
857.0 349.0
857.0 372.0
857.0 396.0
860.0 63.0
860.0 102.0
860.0 131.0
860.0 156.0
860.0 175.0
860.0 193.0
860.0 211.0
860.0 229.0
860.0 247.0
860.0 265.0
860.0 283.0
860.0 301.0
860.0 319.0
860.0 337.0
860.0 355.0
860.0 373.0
860.0 391.0
861.0 64.0
861.0 103.0
861.0 138.0
861.0 163.0
861.0 184.0
861.0 205.0
861.0 225.0
861.0 245.0
861.0 267.0
861.0 288.0
861.0 308.0
861.0 328.0
861.0 349.0
861.0 370.0
861.0 391.0
866.0 39.0
866.0 62.0
866.0 83.0
866.0 104.0
866.0 124.0
866.0 142.0
866.0 158.0
866.0 172.0
866.0 185.0
866.0 197.0
866.0 209.0
866.0 221.0
866.0 233.0
866.0 246.0
866.0 259.0
866.0 272.0
866.0 284.0
866.0 297.0
866.0 310.0
866.0 323.0
866.0 336.0
866.0 349.0
866.0 362.0
866.0 375.0
866.0 388.0
866.0 400.0
870.0 194.0
870.0 266.0
870.0 333.0
870.0 393.0
880.0 69.0
880.0 109.0
880.0 143.0
880.0 168.0
880.0 188.0
880.0 209.0
880.0 228.0
880.0 248.0
880.0 268.0
880.0 287.0
880.0 307.0
880.0 327.0
880.0 346.0
880.0 365.0
880.0 385.0
881.0 208.0
881.0 286.0
881.0 373.0
883.0 218.0
883.0 284.0
883.0 380.0
886.0 306.0
889.0 227.0
889.0 341.0
893.0 220.0
893.0 332.0
894.0 207.0
894.0 282.0
894.0 363.0
941.0 144.0
941.0 180.0
941.0 209.0
941.0 240.0
941.0 270.0
941.0 301.0
941.0 332.0
941.0 361.0
941.0 392.0
949.0 123.0
949.0 158.0
949.0 184.0
949.0 208.0
949.0 233.0
949.0 258.0
949.0 283.0
949.0 308.0
949.0 332.0
949.0 357.0
949.0 381.0
950.0 143.0
950.0 179.0
950.0 209.0
950.0 239.0
950.0 269.0
950.0 297.0
950.0 325.0
950.0 354.0
950.0 385.0
959.0 138.0
959.0 175.0
959.0 204.0
959.0 232.0
959.0 260.0
959.0 288.0
959.0 316.0
959.0 343.0
959.0 371.0
959.0 399.0
973.0 127.0
973.0 162.0
973.0 188.0
973.0 214.0
973.0 239.0
973.0 266.0
973.0 291.0
973.0 318.0
973.0 343.0
973.0 367.0
973.0 394.0
989.0 203.0
989.0 266.0
989.0 326.0
989.0 393.0
991.0 131.0
991.0 166.0
991.0 191.0
991.0 216.0
991.0 242.0
991.0 267.0
991.0 292.0
991.0 319.0
991.0 344.0
991.0 368.0
991.0 394.0
992.0 226.0
992.0 298.0
992.0 377.0
994.0 219.0
994.0 285.0
994.0 354.0
1001.0 73.0
1001.0 118.0
1001.0 153.0
1001.0 178.0
1001.0 199.0
1001.0 219.0
1001.0 241.0
1001.0 262.0
1001.0 282.0
1001.0 303.0
1001.0 325.0
1001.0 346.0
1001.0 367.0
1001.0 388.0
1010.0 310.0
1012.0 67.0
1012.0 109.0
1012.0 143.0
1012.0 168.0
1012.0 188.0
1012.0 209.0
1012.0 228.0
1012.0 247.0
1012.0 268.0
1012.0 288.0
1012.0 308.0
1012.0 327.0
1012.0 347.0
1012.0 367.0
1012.0 388.0
1014.0 215.0
1014.0 287.0
1014.0 366.0
1016.0 74.0
1016.0 123.0
1016.0 158.0
1016.0 183.0
1016.0 205.0
1016.0 227.0
1016.0 249.0
1016.0 271.0
1016.0 293.0
1016.0 316.0
1016.0 338.0
1016.0 360.0
1016.0 382.0
1018.0 217.0
1018.0 297.0
1018.0 378.0
1021.0 247.0
1021.0 349.0
1022.0 310.0
1031.0 196.0
1031.0 259.0
1031.0 331.0
1031.0 395.0
1038.0 66.0
1038.0 110.0
1038.0 144.0
1038.0 170.0
1038.0 190.0
1038.0 209.0
1038.0 229.0
1038.0 249.0
1038.0 268.0
1038.0 288.0
1038.0 308.0
1038.0 329.0
1038.0 348.0
1038.0 368.0
1038.0 389.0
1068.0 138.0
1068.0 173.0
1068.0 201.0
1068.0 229.0
1068.0 257.0
1068.0 285.0
1068.0 313.0
1068.0 341.0
1068.0 368.0
1068.0 395.0
1075.0 134.0
1075.0 172.0
1075.0 201.0
1075.0 230.0
1075.0 258.0
1075.0 286.0
1075.0 316.0
1075.0 344.0
1075.0 372.0
1087.0 138.0
1087.0 173.0
1087.0 201.0
1087.0 228.0
1087.0 256.0
1087.0 284.0
1087.0 311.0
1087.0 339.0
1087.0 367.0
1087.0 395.0
1088.0 142.0
1088.0 177.0
1088.0 207.0
1088.0 236.0
1088.0 265.0
1088.0 295.0
1088.0 324.0
1088.0 354.0
1088.0 383.0
1105.0 119.0
1105.0 153.0
1105.0 179.0
1105.0 203.0
1105.0 226.0
1105.0 250.0
1105.0 274.0
1105.0 298.0
1105.0 322.0
1105.0 346.0
1105.0 370.0
1105.0 394.0
1114.0 120.0
1114.0 157.0
1114.0 183.0
1114.0 207.0
1114.0 233.0
1114.0 259.0
1114.0 285.0
1114.0 311.0
1114.0 336.0
1114.0 362.0
1114.0 387.0
1118.0 131.0
1118.0 167.0
1118.0 195.0
1118.0 223.0
1118.0 250.0
1118.0 278.0
1118.0 306.0
1118.0 335.0
1118.0 362.0
1118.0 390.0
1134.0 193.0
1134.0 265.0
1134.0 328.0
1134.0 385.0
1135.0 141.0
1135.0 178.0
1135.0 209.0
1135.0 240.0
1135.0 272.0
1135.0 304.0
1135.0 334.0
1135.0 364.0
1135.0 396.0
1136.0 276.0
1144.0 281.0
1148.0 215.0
1148.0 291.0
1148.0 374.0
1156.0 66.0
1156.0 109.0
1156.0 145.0
1156.0 170.0
1156.0 191.0
1156.0 212.0
1156.0 232.0
1156.0 253.0
1156.0 274.0
1156.0 294.0
1156.0 314.0
1156.0 335.0
1156.0 356.0
1156.0 376.0
1156.0 396.0
1165.0 65.0
1165.0 110.0
1165.0 144.0
1165.0 171.0
1165.0 192.0
1165.0 213.0
1165.0 236.0
1165.0 257.0
1165.0 279.0
1165.0 300.0
1165.0 322.0
1165.0 344.0
1165.0 366.0
1165.0 388.0
1172.0 64.0
1172.0 106.0
1172.0 142.0
1172.0 169.0
1172.0 190.0
1172.0 211.0
1172.0 231.0
1172.0 252.0
1172.0 273.0
1172.0 292.0
1172.0 312.0
1172.0 333.0
1172.0 354.0
1172.0 375.0
1172.0 396.0
1204.0 134.0
1204.0 171.0
1204.0 199.0
1204.0 227.0
1204.0 256.0
1204.0 284.0
1204.0 312.0
1204.0 340.0
1204.0 369.0
1204.0 397.0
1222.0 126.0
1222.0 162.0
1222.0 189.0
1222.0 214.0
1222.0 241.0
1222.0 266.0
1222.0 293.0
1222.0 320.0
1222.0 346.0
1222.0 372.0
1222.0 399.0
1226.0 122.0
1226.0 158.0
1226.0 186.0
1226.0 210.0
1226.0 235.0
1226.0 258.0
1226.0 283.0
1226.0 306.0
1226.0 330.0
1226.0 354.0
1226.0 378.0
1251.0 68.0
1251.0 109.0
1251.0 144.0
1251.0 170.0
1251.0 191.0
1251.0 211.0
1251.0 231.0
1251.0 252.0
1251.0 273.0
1251.0 292.0
1251.0 312.0
1251.0 333.0
1251.0 352.0
1251.0 372.0
1251.0 393.0
1252.0 197.0
1252.0 273.0
1252.0 347.0
1253.0 67.0
1253.0 111.0
1253.0 150.0
1253.0 176.0
1253.0 198.0
1253.0 221.0
1253.0 243.0
1253.0 265.0
1253.0 287.0
1253.0 309.0
1253.0 331.0
1253.0 354.0
1253.0 377.0
1253.0 400.0
1254.0 130.0
1254.0 168.0
1254.0 196.0
1254.0 222.0
1254.0 249.0
1254.0 277.0
1254.0 304.0
1254.0 333.0
1254.0 361.0
1254.0 389.0
1262.0 229.0
1262.0 301.0
1271.0 305.0
1300.0 249.0
1305.0 317.0
1337.0 130.0
1337.0 168.0
1337.0 196.0
1337.0 224.0
1337.0 250.0
1337.0 277.0
1337.0 305.0
1337.0 332.0
1337.0 360.0
1337.0 388.0
1340.0 133.0
1340.0 169.0
1340.0 197.0
1340.0 224.0
1340.0 251.0
1340.0 278.0
1340.0 305.0
1340.0 332.0
1340.0 359.0
1340.0 387.0
1345.0 135.0
1345.0 172.0
1345.0 201.0
1345.0 229.0
1345.0 258.0
1345.0 288.0
1345.0 316.0
1345.0 345.0
1345.0 373.0
1390.0 69.0
1390.0 112.0
1390.0 146.0
1390.0 172.0
1390.0 193.0
1390.0 214.0
1390.0 235.0
1390.0 257.0
1390.0 278.0
1390.0 299.0
1390.0 319.0
1390.0 338.0
1390.0 359.0
1390.0 380.0
1404.0 69.0
1404.0 116.0
1404.0 152.0
1404.0 177.0
1404.0 199.0
1404.0 221.0
1404.0 242.0
1404.0 263.0
1404.0 284.0
1404.0 305.0
1404.0 327.0
1404.0 348.0
1404.0 369.0
1404.0 391.0
1417.0 144.0
1417.0 180.0
1417.0 211.0
1417.0 243.0
1417.0 274.0
1417.0 306.0
1417.0 338.0
1417.0 370.0
1418.0 136.0
1418.0 173.0
1418.0 202.0
1418.0 230.0
1418.0 259.0
1418.0 287.0
1418.0 316.0
1418.0 344.0
1418.0 373.0
1423.0 136.0
1423.0 173.0
1423.0 202.0
1423.0 229.0
1423.0 257.0
1423.0 285.0
1423.0 313.0
1423.0 341.0
1423.0 369.0
1423.0 397.0
1442.0 9.0
1442.0 15.0
1442.0 21.0
1442.0 27.0
1442.0 33.0
1442.0 39.0
1442.0 45.0
1442.0 51.0
1442.0 57.0
1442.0 63.0
1442.0 69.0
1442.0 75.0
1442.0 81.0
1442.0 87.0
1442.0 93.0
1442.0 99.0
1442.0 105.0
1442.0 111.0
1442.0 117.0
1442.0 122.0
1442.0 127.0
1442.0 132.0
1442.0 137.0
1442.0 142.0
1442.0 147.0
1442.0 152.0
1442.0 157.0
1442.0 162.0
1442.0 166.0
1442.0 170.0
1442.0 174.0
1442.0 178.0
1442.0 182.0
1442.0 186.0
1442.0 190.0
1442.0 194.0
1442.0 198.0
1442.0 202.0
1442.0 206.0
1442.0 210.0
1442.0 214.0
1442.0 218.0
1442.0 222.0
1442.0 226.0
1442.0 230.0
1442.0 234.0
1442.0 238.0
1442.0 242.0
1442.0 246.0
1442.0 250.0
1442.0 254.0
1442.0 258.0
1442.0 262.0
1442.0 266.0
1442.0 270.0
1442.0 274.0
1442.0 278.0
1442.0 282.0
1442.0 286.0
1442.0 290.0
1442.0 294.0
1442.0 298.0
1442.0 302.0
1442.0 306.0
1442.0 310.0
1442.0 314.0
1442.0 318.0
1442.0 322.0
1442.0 326.0
1442.0 330.0
1442.0 334.0
1442.0 338.0
1442.0 342.0
1442.0 346.0
1442.0 350.0
1442.0 354.0
1442.0 358.0
1442.0 362.0
1442.0 366.0
1442.0 370.0
1442.0 374.0
1442.0 378.0
1442.0 382.0
1442.0 386.0
1442.0 390.0
1442.0 394.0
