14.0 75.0
14.0 154.0
14.0 219.0
14.0 276.0
14.0 322.0
14.0 356.0
14.0 384.0
26.0 6.0
26.0 11.0
26.0 14.0
26.0 19.0
26.0 22.0
26.0 27.0
26.0 30.0
26.0 35.0
26.0 38.0
26.0 43.0
26.0 46.0
26.0 51.0
26.0 54.0
26.0 59.0
26.0 62.0
26.0 67.0
26.0 70.0
26.0 74.0
26.0 78.0
26.0 82.0
26.0 86.0
26.0 90.0
26.0 94.0
26.0 98.0
26.0 102.0
26.0 106.0
26.0 110.0
26.0 114.0
26.0 118.0
26.0 122.0
26.0 126.0
26.0 130.0
26.0 134.0
26.0 138.0
26.0 142.0
26.0 146.0
26.0 150.0
26.0 154.0
26.0 158.0
26.0 162.0
26.0 166.0
26.0 170.0
26.0 174.0
26.0 178.0
26.0 182.0
26.0 186.0
26.0 190.0
26.0 194.0
26.0 198.0
26.0 202.0
26.0 206.0
26.0 210.0
26.0 214.0
26.0 217.0
26.0 221.0
26.0 225.0
26.0 228.0
26.0 232.0
26.0 236.0
26.0 240.0
26.0 244.0
26.0 247.0
26.0 251.0
26.0 255.0
26.0 258.0
26.0 262.0
26.0 266.0
26.0 270.0
26.0 274.0
26.0 277.0
26.0 281.0
26.0 285.0
26.0 288.0
26.0 292.0
26.0 296.0
26.0 300.0
26.0 304.0
26.0 307.0
26.0 311.0
26.0 315.0
26.0 318.0
26.0 322.0
26.0 326.0
26.0 330.0
26.0 334.0
26.0 337.0
26.0 341.0
26.0 344.0
26.0 348.0
26.0 351.0
26.0 354.0
26.0 357.0
26.0 360.0
26.0 363.0
26.0 366.0
26.0 369.0
26.0 372.0
26.0 375.0
26.0 378.0
26.0 381.0
26.0 384.0
26.0 387.0
26.0 390.0
26.0 393.0
26.0 396.0
62.0 84.0
62.0 163.0
62.0 227.0
62.0 283.0
62.0 327.0
62.0 361.0
62.0 390.0
85.0 392.0
87.0 76.0
87.0 154.0
87.0 219.0
87.0 281.0
87.0 328.0
87.0 362.0
87.0 391.0
96.0 395.0
112.0 42.0
112.0 71.0
112.0 103.0
112.0 139.0
112.0 179.0
112.0 222.0
112.0 261.0
112.0 298.0
112.0 338.0
112.0 368.0
112.0 394.0
129.0 42.0
129.0 71.0
129.0 103.0
129.0 138.0
129.0 179.0
129.0 220.0
129.0 258.0
129.0 295.0
129.0 333.0
129.0 364.0
129.0 391.0
157.0 84.0
157.0 169.0
157.0 234.0
157.0 296.0
157.0 340.0
157.0 372.0
157.0 400.0
159.0 82.0
159.0 153.0
159.0 224.0
159.0 281.0
159.0 325.0
159.0 361.0
159.0 390.0
165.0 226.0
165.0 298.0
165.0 349.0
165.0 384.0
166.0 84.0
166.0 169.0
166.0 233.0
166.0 290.0
166.0 336.0
166.0 368.0
166.0 396.0
167.0 144.0
167.0 223.0
167.0 282.0
167.0 329.0
167.0 365.0
167.0 395.0
185.0 74.0
185.0 145.0
185.0 210.0
185.0 262.0
185.0 314.0
185.0 351.0
185.0 379.0
217.0 41.0
217.0 69.0
217.0 101.0
217.0 137.0
217.0 178.0
217.0 220.0
217.0 260.0
217.0 297.0
217.0 338.0
217.0 369.0
217.0 398.0
224.0 42.0
224.0 69.0
224.0 96.0
224.0 128.0
224.0 160.0
224.0 200.0
224.0 235.0
224.0 270.0
224.0 307.0
224.0 343.0
224.0 370.0
224.0 395.0
227.0 42.0
227.0 73.0
227.0 109.0
227.0 147.0
227.0 195.0
227.0 237.0
227.0 280.0
227.0 321.0
227.0 358.0
227.0 387.0
232.0 42.0
232.0 66.0
232.0 91.0
232.0 122.0
232.0 154.0
232.0 192.0
232.0 228.0
232.0 262.0
232.0 295.0
232.0 329.0
232.0 358.0
232.0 382.0
241.0 42.0
241.0 67.0
241.0 93.0
241.0 124.0
241.0 159.0
241.0 196.0
241.0 232.0
241.0 268.0
241.0 304.0
241.0 341.0
241.0 369.0
241.0 394.0
258.0 43.0
258.0 72.0
258.0 106.0
258.0 142.0
258.0 184.0
258.0 226.0
258.0 266.0
258.0 305.0
258.0 344.0
258.0 374.0
259.0 43.0
259.0 72.0
259.0 107.0
259.0 145.0
259.0 189.0
259.0 231.0
259.0 271.0
259.0 312.0
259.0 350.0
259.0 380.0
286.0 76.0
286.0 148.0
286.0 224.0
286.0 273.0
286.0 323.0
286.0 360.0
286.0 387.0
296.0 72.0
296.0 136.0
296.0 191.0
296.0 233.0
296.0 280.0
296.0 322.0
296.0 353.0
296.0 378.0
303.0 67.0
303.0 131.0
303.0 187.0
303.0 234.0
303.0 282.0
303.0 323.0
303.0 356.0
303.0 381.0
306.0 82.0
306.0 162.0
306.0 232.0
306.0 296.0
306.0 341.0
306.0 372.0
318.0 394.0
328.0 41.0
328.0 67.0
328.0 98.0
328.0 132.0
328.0 173.0
328.0 217.0
328.0 255.0
328.0 293.0
328.0 334.0
328.0 366.0
328.0 396.0
334.0 42.0
334.0 70.0
334.0 99.0
334.0 132.0
334.0 171.0
334.0 210.0
334.0 249.0
334.0 286.0
334.0 322.0
334.0 357.0
334.0 387.0
347.0 32.0
347.0 51.0
347.0 70.0
347.0 89.0
347.0 113.0
347.0 135.0
347.0 157.0
347.0 181.0
347.0 205.0
347.0 229.0
347.0 250.0
347.0 273.0
347.0 295.0
347.0 319.0
347.0 338.0
347.0 357.0
347.0 374.0
347.0 391.0
366.0 43.0
366.0 71.0
366.0 102.0
366.0 137.0
366.0 182.0
366.0 223.0
366.0 259.0
366.0 296.0
366.0 332.0
366.0 363.0
366.0 389.0
382.0 44.0
382.0 74.0
382.0 111.0
382.0 151.0
382.0 200.0
382.0 242.0
382.0 285.0
382.0 327.0
382.0 363.0
382.0 392.0
428.0 84.0
428.0 223.0
428.0 287.0
428.0 336.0
428.0 370.0
434.0 144.0
434.0 219.0
434.0 282.0
434.0 331.0
434.0 366.0
434.0 395.0
435.0 75.0
435.0 159.0
435.0 231.0
435.0 282.0
435.0 327.0
435.0 361.0
435.0 389.0
450.0 60.0
450.0 127.0
450.0 184.0
450.0 233.0
450.0 286.0
450.0 328.0
450.0 359.0
450.0 386.0
477.0 163.0
477.0 226.0
477.0 292.0
477.0 338.0
477.0 369.0
477.0 397.0
487.0 43.0
487.0 72.0
487.0 106.0
487.0 140.0
487.0 183.0
487.0 224.0
487.0 264.0
487.0 300.0
487.0 339.0
487.0 368.0
487.0 395.0
558.0 80.0
558.0 160.0
558.0 228.0
558.0 283.0
558.0 327.0
558.0 360.0
558.0 385.0
580.0 167.0
580.0 239.0
580.0 303.0
580.0 347.0
580.0 378.0
591.0 82.0
599.0 33.0
599.0 52.0
599.0 73.0
599.0 95.0
599.0 120.0
599.0 143.0
599.0 168.0
599.0 193.0
599.0 218.0
599.0 241.0
599.0 265.0
599.0 289.0
599.0 312.0
599.0 333.0
599.0 353.0
599.0 371.0
599.0 389.0
605.0 42.0
605.0 67.0
605.0 92.0
605.0 123.0
605.0 155.0
605.0 195.0
605.0 231.0
605.0 267.0
605.0 302.0
605.0 340.0
605.0 368.0
605.0 393.0
607.0 76.0
607.0 155.0
607.0 226.0
607.0 283.0
607.0 331.0
607.0 364.0
607.0 392.0
623.0 43.0
623.0 70.0
623.0 103.0
623.0 138.0
623.0 180.0
623.0 223.0
623.0 263.0
623.0 300.0
623.0 337.0
623.0 367.0
623.0 395.0
632.0 42.0
632.0 68.0
632.0 98.0
632.0 130.0
632.0 168.0
632.0 209.0
632.0 245.0
632.0 281.0
632.0 317.0
632.0 350.0
632.0 377.0
680.0 9.0
680.0 15.0
680.0 21.0
680.0 28.0
680.0 36.0
680.0 44.0
680.0 52.0
680.0 60.0
680.0 68.0
680.0 77.0
680.0 87.0
680.0 97.0
680.0 107.0
680.0 115.0
680.0 123.0
680.0 131.0
680.0 139.0
680.0 147.0
680.0 155.0
680.0 163.0
680.0 171.0
680.0 179.0
680.0 187.0
680.0 195.0
680.0 203.0
680.0 211.0
680.0 219.0
680.0 227.0
680.0 235.0
680.0 243.0
680.0 251.0
680.0 259.0
680.0 267.0
680.0 275.0
680.0 283.0
680.0 291.0
680.0 299.0
680.0 307.0
680.0 313.0
680.0 319.0
680.0 325.0
680.0 331.0
680.0 337.0
680.0 343.0
680.0 349.0
680.0 355.0
680.0 361.0
680.0 367.0
680.0 373.0
680.0 379.0
680.0 385.0
680.0 391.0
696.0 44.0
696.0 71.0
696.0 98.0
696.0 124.0
696.0 152.0
696.0 180.0
696.0 208.0
696.0 234.0
696.0 261.0
696.0 287.0
696.0 313.0
696.0 340.0
696.0 364.0
696.0 384.0
708.0 46.0
708.0 77.0
708.0 117.0
708.0 160.0
708.0 214.0
708.0 261.0
708.0 310.0
708.0 354.0
708.0 387.0
709.0 81.0
709.0 152.0
709.0 223.0
709.0 281.0
709.0 324.0
709.0 358.0
709.0 386.0
714.0 84.0
714.0 154.0
714.0 227.0
714.0 298.0
714.0 343.0
714.0 386.0
718.0 74.0
718.0 144.0
718.0 216.0
718.0 265.0
718.0 313.0
718.0 350.0
718.0 377.0
725.0 46.0
725.0 74.0
725.0 107.0
725.0 140.0
725.0 183.0
725.0 225.0
725.0 266.0
725.0 305.0
725.0 345.0
725.0 382.0
734.0 44.0
734.0 73.0
734.0 98.0
734.0 126.0
734.0 152.0
734.0 178.0
734.0 206.0
734.0 231.0
734.0 255.0
734.0 282.0
734.0 306.0
734.0 330.0
734.0 354.0
734.0 374.0
734.0 394.0
735.0 43.0
735.0 70.0
735.0 101.0
735.0 136.0
735.0 175.0
735.0 218.0
735.0 259.0
735.0 301.0
735.0 342.0
735.0 382.0
736.0 74.0
736.0 391.0
738.0 131.0
738.0 211.0
738.0 291.0
738.0 339.0
738.0 385.0
744.0 44.0
744.0 73.0
744.0 100.0
744.0 127.0
744.0 153.0
744.0 183.0
744.0 210.0
744.0 235.0
744.0 262.0
744.0 287.0
744.0 313.0
744.0 341.0
744.0 364.0
744.0 386.0
745.0 43.0
745.0 70.0
745.0 103.0
745.0 138.0
745.0 180.0
745.0 222.0
745.0 263.0
745.0 302.0
745.0 342.0
745.0 372.0
745.0 399.0
763.0 6.0
763.0 11.0
763.0 16.0
763.0 20.0
763.0 24.0
763.0 28.0
763.0 32.0
763.0 36.0
763.0 40.0
763.0 44.0
763.0 48.0
763.0 52.0
763.0 56.0
763.0 60.0
763.0 64.0
763.0 68.0
763.0 72.0
763.0 76.0
763.0 81.0
763.0 85.0
763.0 91.0
763.0 96.0
763.0 101.0
763.0 106.0
763.0 111.0
763.0 116.0
763.0 121.0
763.0 126.0
763.0 131.0
763.0 136.0
763.0 141.0
763.0 147.0
763.0 153.0
763.0 159.0
763.0 165.0
763.0 171.0
763.0 177.0
763.0 183.0
763.0 189.0
763.0 195.0
763.0 201.0
763.0 207.0
763.0 213.0
763.0 219.0
763.0 225.0
763.0 231.0
763.0 237.0
763.0 243.0
763.0 249.0
763.0 255.0
763.0 261.0
763.0 267.0
763.0 273.0
763.0 279.0
763.0 285.0
763.0 291.0
763.0 297.0
763.0 303.0
763.0 309.0
763.0 315.0
763.0 321.0
763.0 327.0
763.0 333.0
763.0 339.0
763.0 345.0
763.0 351.0
763.0 357.0
763.0 363.0
763.0 369.0
763.0 375.0
763.0 381.0
763.0 387.0
763.0 393.0
842.0 169.0
842.0 289.0
842.0 341.0
842.0 394.0
843.0 75.0
852.0 83.0
852.0 192.0
852.0 290.0
852.0 338.0
852.0 383.0
857.0 76.0
857.0 137.0
857.0 193.0
857.0 241.0
857.0 301.0
857.0 344.0
857.0 381.0
860.0 73.0
860.0 350.0
861.0 76.0
866.0 34.0
866.0 53.0
866.0 73.0
866.0 93.0
866.0 116.0
866.0 138.0
866.0 161.0
866.0 186.0
866.0 210.0
866.0 233.0
866.0 257.0
866.0 281.0
866.0 305.0
866.0 327.0
866.0 349.0
866.0 369.0
866.0 390.0
880.0 46.0
880.0 74.0
880.0 107.0
880.0 142.0
880.0 185.0
880.0 226.0
880.0 267.0
880.0 306.0
880.0 345.0
880.0 382.0
941.0 175.0
941.0 318.0
941.0 367.0
949.0 83.0
949.0 144.0
949.0 210.0
949.0 272.0
949.0 320.0
949.0 358.0
949.0 395.0
950.0 265.0
950.0 329.0
950.0 377.0
959.0 138.0
959.0 225.0
959.0 298.0
959.0 345.0
959.0 390.0
973.0 80.0
973.0 152.0
973.0 224.0
973.0 280.0
973.0 329.0
973.0 372.0
991.0 76.0
991.0 145.0
991.0 225.0
991.0 298.0
991.0 343.0
991.0 384.0
1001.0 44.0
1001.0 74.0
1001.0 110.0
1001.0 148.0
1001.0 193.0
1001.0 241.0
1001.0 289.0
1001.0 337.0
1001.0 391.0
1012.0 43.0
1012.0 71.0
1012.0 104.0
1012.0 139.0
1012.0 180.0
1012.0 223.0
1012.0 265.0
1012.0 306.0
1012.0 345.0
1012.0 386.0
1016.0 46.0
1016.0 75.0
1016.0 109.0
1016.0 146.0
1016.0 190.0
1016.0 237.0
1016.0 282.0
1016.0 329.0
1016.0 375.0
1038.0 43.0
1038.0 71.0
1038.0 104.0
1038.0 139.0
1038.0 182.0
1038.0 226.0
1038.0 267.0
1038.0 308.0
1038.0 350.0
1038.0 390.0
1068.0 135.0
1068.0 222.0
1068.0 303.0
1068.0 347.0
1068.0 390.0
1075.0 130.0
1075.0 218.0
1075.0 306.0
1075.0 354.0
1075.0 398.0
1087.0 161.0
1087.0 295.0
1087.0 346.0
1087.0 393.0
1088.0 145.0
1088.0 233.0
1088.0 317.0
1088.0 365.0
1105.0 68.0
1105.0 137.0
1105.0 192.0
1105.0 244.0
1105.0 298.0
1105.0 337.0
1105.0 373.0
1114.0 83.0
1114.0 156.0
1114.0 227.0
1114.0 289.0
1114.0 335.0
1114.0 372.0
1118.0 153.0
1118.0 236.0
1118.0 300.0
1118.0 344.0
1118.0 390.0
1135.0 187.0
1135.0 300.0
1135.0 356.0
1156.0 43.0
1156.0 71.0
1156.0 104.0
1156.0 140.0
1156.0 185.0
1156.0 228.0
1156.0 272.0
1156.0 316.0
1156.0 361.0
1165.0 43.0
1165.0 72.0
1165.0 106.0
1165.0 144.0
1165.0 192.0
1165.0 241.0
1165.0 289.0
1165.0 333.0
1165.0 378.0
1172.0 42.0
1172.0 69.0
1172.0 101.0
1172.0 137.0
1172.0 181.0
1172.0 225.0
1172.0 269.0
1172.0 310.0
1172.0 355.0
1172.0 398.0
1204.0 161.0
1204.0 241.0
1204.0 321.0
1204.0 367.0
1222.0 84.0
1222.0 158.0
1222.0 228.0
1222.0 292.0
1222.0 337.0
1222.0 376.0
1226.0 76.0
1226.0 144.0
1226.0 200.0
1226.0 249.0
1226.0 304.0
1226.0 347.0
1226.0 385.0
1251.0 43.0
1251.0 71.0
1251.0 103.0
1251.0 138.0
1251.0 183.0
1251.0 227.0
1251.0 271.0
1251.0 315.0
1251.0 358.0
1251.0 399.0
1253.0 44.0
1253.0 74.0
1253.0 112.0
1253.0 153.0
1253.0 200.0
1253.0 248.0
1253.0 299.0
1253.0 347.0
1253.0 399.0
1254.0 140.0
1254.0 220.0
1254.0 283.0
1254.0 335.0
1254.0 379.0
1337.0 87.0
1337.0 162.0
1337.0 233.0
1337.0 299.0
1337.0 343.0
1337.0 385.0
1340.0 139.0
1340.0 209.0
1340.0 283.0
1340.0 332.0
1340.0 375.0
1345.0 163.0
1345.0 250.0
1345.0 325.0
1345.0 371.0
1390.0 43.0
1390.0 71.0
1390.0 107.0
1390.0 143.0
1390.0 187.0
1390.0 231.0
1390.0 275.0
1390.0 321.0
1390.0 364.0
1404.0 46.0
1404.0 74.0
1404.0 109.0
1404.0 145.0
1404.0 190.0
1404.0 234.0
1404.0 279.0
1404.0 322.0
1404.0 366.0
1417.0 320.0
1417.0 380.0
1418.0 148.0
1418.0 234.0
1418.0 325.0
1418.0 373.0
1423.0 147.0
1423.0 235.0
1423.0 315.0
1423.0 363.0
1442.0 7.0
1442.0 12.0
1442.0 16.0
1442.0 20.0
1442.0 24.0
1442.0 28.0
1442.0 32.0
1442.0 36.0
1442.0 40.0
1442.0 44.0
1442.0 48.0
1442.0 52.0
1442.0 56.0
1442.0 60.0
1442.0 64.0
1442.0 68.0
1442.0 72.0
1442.0 76.0
1442.0 80.0
1442.0 84.0
1442.0 88.0
1442.0 92.0
1442.0 96.0
1442.0 100.0
1442.0 104.0
1442.0 108.0
1442.0 112.0
1442.0 116.0
1442.0 120.0
1442.0 124.0
1442.0 128.0
1442.0 132.0
1442.0 136.0
1442.0 140.0
1442.0 144.0
1442.0 148.0
1442.0 152.0
1442.0 156.0
1442.0 160.0
1442.0 164.0
1442.0 168.0
1442.0 172.0
1442.0 176.0
1442.0 180.0
1442.0 184.0
1442.0 188.0
1442.0 192.0
1442.0 196.0
1442.0 200.0
1442.0 204.0
1442.0 208.0
1442.0 212.0
1442.0 216.0
1442.0 220.0
1442.0 224.0
1442.0 228.0
1442.0 232.0
1442.0 236.0
1442.0 240.0
1442.0 244.0
1442.0 248.0
1442.0 252.0
1442.0 256.0
1442.0 260.0
1442.0 264.0
1442.0 268.0
1442.0 272.0
1442.0 276.0
1442.0 280.0
1442.0 284.0
1442.0 288.0
1442.0 292.0
1442.0 296.0
1442.0 300.0
1442.0 304.0
1442.0 308.0
1442.0 312.0
1442.0 316.0
1442.0 320.0
1442.0 324.0
1442.0 328.0
1442.0 332.0
1442.0 336.0
1442.0 340.0
1442.0 344.0
1442.0 348.0
1442.0 352.0
1442.0 356.0
1442.0 360.0
1442.0 364.0
1442.0 368.0
1442.0 372.0
1442.0 376.0
1442.0 380.0
1442.0 384.0
1442.0 388.0
1442.0 392.0
1442.0 396.0
