232.0 126.0
232.0 211.0
235.0 131.0
235.0 239.0
241.0 108.0
241.0 193.0
241.0 277.0
241.0 383.0
334.0 111.0
334.0 198.0
334.0 280.0
347.0 36.0
347.0 58.0
347.0 79.0
347.0 100.0
347.0 121.0
347.0 142.0
347.0 163.0
347.0 184.0
347.0 205.0
347.0 226.0
347.0 247.0
347.0 268.0
347.0 289.0
347.0 310.0
347.0 333.0
347.0 355.0
347.0 376.0
347.0 400.0
366.0 128.0
366.0 226.0
383.0 132.0
449.0 123.0
449.0 258.0
456.0 37.0
456.0 58.0
456.0 79.0
456.0 100.0
456.0 121.0
456.0 142.0
456.0 163.0
456.0 184.0
456.0 205.0
456.0 226.0
456.0 246.0
456.0 267.0
456.0 288.0
456.0 309.0
456.0 332.0
456.0 353.0
456.0 374.0
456.0 396.0
466.0 110.0
466.0 196.0
466.0 281.0
466.0 376.0
475.0 112.0
475.0 190.0
475.0 268.0
475.0 381.0
478.0 105.0
478.0 186.0
478.0 267.0
478.0 374.0
493.0 288.0
589.0 111.0
589.0 200.0
589.0 287.0
590.0 284.0
591.0 35.0
591.0 55.0
591.0 75.0
591.0 95.0
591.0 116.0
591.0 136.0
591.0 156.0
591.0 176.0
591.0 196.0
591.0 216.0
591.0 236.0
591.0 256.0
591.0 276.0
591.0 296.0
591.0 316.0
591.0 337.0
591.0 356.0
591.0 376.0
591.0 398.0
599.0 36.0
599.0 57.0
599.0 78.0
599.0 98.0
599.0 118.0
599.0 139.0
599.0 160.0
599.0 181.0
599.0 201.0
599.0 223.0
599.0 244.0
599.0 265.0
599.0 285.0
599.0 306.0
599.0 328.0
599.0 350.0
599.0 371.0
599.0 393.0
601.0 118.0
601.0 208.0
601.0 301.0
601.0 385.0
605.0 111.0
605.0 198.0
605.0 287.0
612.0 89.0
612.0 153.0
612.0 221.0
612.0 287.0
612.0 374.0
613.0 112.0
613.0 199.0
613.0 310.0
615.0 204.0
615.0 383.0
625.0 83.0
625.0 151.0
625.0 208.0
625.0 268.0
625.0 354.0
632.0 107.0
632.0 212.0
632.0 290.0
680.0 7.0
680.0 12.0
680.0 16.0
680.0 20.0
680.0 24.0
680.0 28.0
680.0 32.0
680.0 36.0
680.0 40.0
680.0 44.0
680.0 48.0
680.0 52.0
680.0 56.0
680.0 60.0
680.0 64.0
680.0 68.0
680.0 72.0
680.0 76.0
680.0 80.0
680.0 84.0
680.0 88.0
680.0 92.0
680.0 96.0
680.0 100.0
680.0 104.0
680.0 108.0
680.0 112.0
680.0 116.0
680.0 120.0
680.0 124.0
680.0 128.0
680.0 132.0
680.0 136.0
680.0 140.0
680.0 144.0
680.0 148.0
680.0 152.0
680.0 156.0
680.0 160.0
680.0 164.0
680.0 168.0
680.0 172.0
680.0 176.0
680.0 180.0
680.0 184.0
680.0 188.0
680.0 192.0
680.0 196.0
680.0 200.0
680.0 204.0
680.0 208.0
680.0 212.0
680.0 216.0
680.0 220.0
680.0 224.0
680.0 228.0
680.0 232.0
680.0 236.0
680.0 240.0
680.0 244.0
680.0 248.0
680.0 252.0
680.0 256.0
680.0 260.0
680.0 264.0
680.0 268.0
680.0 272.0
680.0 276.0
680.0 280.0
680.0 284.0
680.0 288.0
680.0 292.0
680.0 296.0
680.0 300.0
680.0 304.0
680.0 308.0
680.0 312.0
680.0 316.0
680.0 320.0
680.0 324.0
680.0 328.0
680.0 332.0
680.0 336.0
680.0 340.0
680.0 344.0
680.0 348.0
680.0 352.0
680.0 356.0
680.0 360.0
680.0 364.0
680.0 368.0
680.0 372.0
680.0 376.0
680.0 379.0
680.0 383.0
680.0 387.0
680.0 390.0
680.0 394.0
680.0 400.0
714.0 36.0
714.0 56.0
714.0 76.0
714.0 96.0
714.0 115.0
714.0 135.0
714.0 155.0
714.0 175.0
714.0 195.0
714.0 215.0
714.0 234.0
714.0 254.0
714.0 274.0
714.0 294.0
714.0 314.0
714.0 334.0
714.0 354.0
714.0 374.0
714.0 393.0
716.0 201.0
719.0 108.0
719.0 180.0
719.0 246.0
719.0 318.0
725.0 33.0
725.0 49.0
725.0 65.0
725.0 81.0
725.0 97.0
725.0 113.0
725.0 130.0
725.0 146.0
725.0 162.0
725.0 178.0
725.0 193.0
725.0 209.0
725.0 225.0
725.0 242.0
725.0 259.0
725.0 275.0
725.0 290.0
725.0 306.0
725.0 323.0
725.0 340.0
725.0 357.0
725.0 373.0
725.0 390.0
726.0 93.0
726.0 158.0
726.0 224.0
726.0 281.0
726.0 367.0
729.0 130.0
729.0 223.0
729.0 300.0
729.0 399.0
734.0 123.0
734.0 213.0
734.0 288.0
734.0 381.0
735.0 31.0
735.0 47.0
735.0 63.0
735.0 80.0
735.0 96.0
735.0 112.0
735.0 129.0
735.0 146.0
735.0 163.0
735.0 179.0
735.0 194.0
735.0 211.0
735.0 228.0
735.0 244.0
735.0 260.0
735.0 277.0
735.0 293.0
735.0 309.0
735.0 326.0
735.0 343.0
735.0 360.0
735.0 377.0
735.0 395.0
736.0 34.0
736.0 54.0
736.0 75.0
736.0 97.0
736.0 118.0
736.0 138.0
736.0 159.0
736.0 180.0
736.0 201.0
736.0 223.0
736.0 243.0
736.0 263.0
736.0 285.0
736.0 306.0
736.0 327.0
736.0 348.0
736.0 370.0
736.0 391.0
738.0 38.0
738.0 60.0
738.0 82.0
738.0 104.0
738.0 126.0
738.0 148.0
738.0 170.0
738.0 192.0
738.0 214.0
738.0 236.0
738.0 258.0
738.0 280.0
738.0 301.0
738.0 323.0
738.0 345.0
738.0 367.0
738.0 388.0
740.0 249.0
743.0 222.0
744.0 108.0
744.0 189.0
744.0 261.0
744.0 378.0
745.0 284.0
754.0 124.0
754.0 212.0
754.0 307.0
762.0 109.0
762.0 197.0
762.0 274.0
762.0 378.0
763.0 6.0
763.0 9.0
763.0 12.0
763.0 15.0
763.0 18.0
763.0 21.0
763.0 24.0
763.0 27.0
763.0 30.0
763.0 33.0
763.0 36.0
763.0 39.0
763.0 42.0
763.0 45.0
763.0 48.0
763.0 51.0
763.0 54.0
763.0 57.0
763.0 60.0
763.0 63.0
763.0 66.0
763.0 69.0
763.0 72.0
763.0 75.0
763.0 78.0
763.0 81.0
763.0 84.0
763.0 87.0
763.0 90.0
763.0 93.0
763.0 96.0
763.0 99.0
763.0 102.0
763.0 105.0
763.0 108.0
763.0 111.0
763.0 114.0
763.0 117.0
763.0 120.0
763.0 123.0
763.0 126.0
763.0 129.0
763.0 132.0
763.0 135.0
763.0 138.0
763.0 141.0
763.0 144.0
763.0 147.0
763.0 150.0
763.0 153.0
763.0 156.0
763.0 159.0
763.0 162.0
763.0 165.0
763.0 168.0
763.0 171.0
763.0 174.0
763.0 177.0
763.0 180.0
763.0 183.0
763.0 186.0
763.0 189.0
763.0 192.0
763.0 195.0
763.0 198.0
763.0 201.0
763.0 204.0
763.0 207.0
763.0 210.0
763.0 213.0
763.0 216.0
763.0 219.0
763.0 222.0
763.0 225.0
763.0 228.0
763.0 231.0
763.0 234.0
763.0 237.0
763.0 240.0
763.0 243.0
763.0 246.0
763.0 249.0
763.0 252.0
763.0 255.0
763.0 258.0
763.0 261.0
763.0 264.0
763.0 267.0
763.0 270.0
763.0 273.0
763.0 276.0
763.0 279.0
763.0 282.0
763.0 285.0
763.0 288.0
763.0 291.0
763.0 294.0
763.0 297.0
763.0 300.0
763.0 303.0
763.0 306.0
763.0 309.0
763.0 313.0
763.0 316.0
763.0 319.0
763.0 322.0
763.0 325.0
763.0 329.0
763.0 332.0
763.0 335.0
763.0 338.0
763.0 341.0
763.0 344.0
763.0 347.0
763.0 350.0
763.0 353.0
763.0 356.0
763.0 359.0
763.0 362.0
763.0 365.0
763.0 368.0
763.0 371.0
763.0 374.0
763.0 377.0
763.0 380.0
763.0 384.0
763.0 388.0
763.0 392.0
763.0 396.0
819.0 124.0
819.0 216.0
819.0 283.0
819.0 360.0
841.0 36.0
841.0 60.0
841.0 84.0
841.0 108.0
841.0 132.0
841.0 156.0
841.0 180.0
841.0 204.0
841.0 227.0
841.0 251.0
841.0 276.0
841.0 300.0
841.0 324.0
841.0 349.0
841.0 373.0
841.0 399.0
842.0 36.0
842.0 59.0
842.0 83.0
842.0 107.0
842.0 131.0
842.0 155.0
842.0 179.0
842.0 203.0
842.0 227.0
842.0 251.0
842.0 274.0
842.0 297.0
842.0 320.0
842.0 344.0
842.0 368.0
842.0 390.0
843.0 36.0
843.0 58.0
843.0 80.0
843.0 102.0
843.0 123.0
843.0 145.0
843.0 168.0
843.0 190.0
843.0 211.0
843.0 232.0
843.0 254.0
843.0 276.0
843.0 297.0
843.0 319.0
843.0 343.0
843.0 365.0
843.0 386.0
850.0 122.0
850.0 206.0
850.0 290.0
850.0 386.0
851.0 63.0
851.0 110.0
851.0 154.0
851.0 200.0
851.0 245.0
851.0 287.0
851.0 337.0
851.0 383.0
852.0 36.0
852.0 56.0
852.0 76.0
852.0 96.0
852.0 116.0
852.0 136.0
852.0 156.0
852.0 175.0
852.0 195.0
852.0 214.0
852.0 233.0
852.0 253.0
852.0 273.0
852.0 292.0
852.0 312.0
852.0 332.0
852.0 352.0
852.0 372.0
852.0 391.0
857.0 36.0
857.0 55.0
857.0 74.0
857.0 93.0
857.0 111.0
857.0 130.0
857.0 149.0
857.0 167.0
857.0 186.0
857.0 203.0
857.0 222.0
857.0 242.0
857.0 261.0
857.0 279.0
857.0 297.0
857.0 316.0
857.0 335.0
857.0 354.0
857.0 373.0
857.0 390.0
860.0 34.0
860.0 53.0
860.0 72.0
860.0 91.0
860.0 110.0
860.0 129.0
860.0 148.0
860.0 167.0
860.0 186.0
860.0 205.0
860.0 224.0
860.0 243.0
860.0 262.0
860.0 281.0
860.0 298.0
860.0 317.0
860.0 337.0
860.0 357.0
860.0 376.0
860.0 396.0
861.0 36.0
861.0 58.0
861.0 81.0
861.0 103.0
861.0 125.0
861.0 146.0
861.0 169.0
861.0 191.0
861.0 214.0
861.0 236.0
861.0 258.0
861.0 281.0
861.0 302.0
861.0 325.0
861.0 349.0
861.0 372.0
861.0 396.0
863.0 102.0
863.0 186.0
863.0 267.0
863.0 348.0
864.0 103.0
864.0 204.0
864.0 279.0
864.0 366.0
866.0 26.0
866.0 38.0
866.0 50.0
866.0 62.0
866.0 74.0
866.0 86.0
866.0 98.0
866.0 110.0
866.0 121.0
866.0 133.0
866.0 144.0
866.0 155.0
866.0 167.0
866.0 179.0
866.0 191.0
866.0 203.0
866.0 215.0
866.0 227.0
866.0 239.0
866.0 251.0
866.0 263.0
866.0 275.0
866.0 286.0
866.0 297.0
866.0 308.0
866.0 320.0
866.0 332.0
866.0 344.0
866.0 356.0
866.0 367.0
866.0 379.0
866.0 391.0
870.0 84.0
870.0 150.0
870.0 231.0
870.0 297.0
870.0 377.0
872.0 282.0
880.0 33.0
880.0 50.0
880.0 67.0
880.0 84.0
880.0 101.0
880.0 118.0
880.0 135.0
880.0 152.0
880.0 169.0
880.0 186.0
880.0 203.0
880.0 220.0
880.0 237.0
880.0 254.0
880.0 270.0
880.0 286.0
880.0 303.0
880.0 321.0
880.0 339.0
880.0 355.0
880.0 372.0
880.0 390.0
881.0 108.0
881.0 194.0
881.0 279.0
883.0 123.0
883.0 217.0
883.0 292.0
886.0 103.0
886.0 181.0
886.0 265.0
889.0 105.0
889.0 189.0
889.0 274.0
889.0 371.0
893.0 110.0
893.0 200.0
893.0 281.0
894.0 76.0
894.0 139.0
894.0 205.0
894.0 274.0
894.0 357.0
903.0 140.0
903.0 272.0
941.0 36.0
941.0 59.0
941.0 82.0
941.0 105.0
941.0 129.0
941.0 151.0
941.0 174.0
941.0 198.0
941.0 222.0
941.0 245.0
941.0 268.0
941.0 292.0
941.0 315.0
941.0 339.0
941.0 363.0
941.0 386.0
949.0 36.0
949.0 56.0
949.0 76.0
949.0 96.0
949.0 116.0
949.0 135.0
949.0 154.0
949.0 174.0
949.0 193.0
949.0 213.0
949.0 232.0
949.0 252.0
949.0 272.0
949.0 291.0
949.0 310.0
949.0 330.0
949.0 350.0
949.0 369.0
949.0 388.0
950.0 35.0
950.0 57.0
950.0 79.0
950.0 102.0
950.0 122.0
950.0 143.0
950.0 166.0
950.0 188.0
950.0 209.0
950.0 230.0
950.0 251.0
950.0 273.0
950.0 294.0
950.0 315.0
950.0 336.0
950.0 359.0
950.0 381.0
951.0 86.0
951.0 158.0
951.0 240.0
951.0 329.0
959.0 37.0
959.0 60.0
959.0 83.0
959.0 106.0
959.0 129.0
959.0 151.0
959.0 174.0
959.0 195.0
959.0 218.0
959.0 241.0
959.0 265.0
959.0 286.0
959.0 308.0
959.0 330.0
959.0 353.0
959.0 377.0
959.0 399.0
965.0 107.0
965.0 218.0
965.0 288.0
965.0 389.0
973.0 34.0
973.0 54.0
973.0 74.0
973.0 94.0
973.0 114.0
973.0 133.0
973.0 153.0
973.0 173.0
973.0 193.0
973.0 213.0
973.0 233.0
973.0 253.0
973.0 272.0
973.0 292.0
973.0 312.0
973.0 332.0
973.0 352.0
973.0 372.0
973.0 391.0
983.0 209.0
985.0 85.0
985.0 145.0
985.0 203.0
985.0 263.0
985.0 316.0
985.0 379.0
989.0 102.0
989.0 186.0
989.0 268.0
991.0 35.0
991.0 55.0
991.0 75.0
991.0 94.0
991.0 114.0
991.0 134.0
991.0 154.0
991.0 174.0
991.0 195.0
991.0 214.0
991.0 235.0
991.0 255.0
991.0 277.0
991.0 297.0
991.0 317.0
991.0 337.0
991.0 357.0
991.0 377.0
991.0 396.0
992.0 250.0
994.0 110.0
994.0 203.0
994.0 289.0
998.0 242.0
998.0 378.0
1001.0 31.0
1001.0 49.0
1001.0 67.0
1001.0 85.0
1001.0 103.0
1001.0 120.0
1001.0 137.0
1001.0 154.0
1001.0 172.0
1001.0 190.0
1001.0 208.0
1001.0 226.0
1001.0 243.0
1001.0 260.0
1001.0 277.0
1001.0 295.0
1001.0 313.0
1001.0 331.0
1001.0 349.0
1001.0 366.0
1001.0 384.0
1004.0 272.0
1010.0 269.0
1012.0 29.0
1012.0 46.0
1012.0 63.0
1012.0 80.0
1012.0 97.0
1012.0 114.0
1012.0 130.0
1012.0 147.0
1012.0 165.0
1012.0 182.0
1012.0 199.0
1012.0 214.0
1012.0 231.0
1012.0 248.0
1012.0 265.0
1012.0 282.0
1012.0 298.0
1012.0 315.0
1012.0 333.0
1012.0 350.0
1012.0 367.0
1012.0 384.0
1014.0 79.0
1014.0 136.0
1014.0 202.0
1014.0 267.0
1014.0 360.0
1016.0 32.0
1016.0 51.0
1016.0 70.0
1016.0 89.0
1016.0 108.0
1016.0 126.0
1016.0 145.0
1016.0 164.0
1016.0 183.0
1016.0 202.0
1016.0 219.0
1016.0 237.0
1016.0 255.0
1016.0 274.0
1016.0 291.0
1016.0 309.0
1016.0 328.0
1016.0 348.0
1016.0 366.0
1016.0 384.0
1018.0 85.0
1018.0 166.0
1018.0 256.0
1018.0 361.0
1022.0 107.0
1022.0 191.0
1022.0 273.0
1028.0 320.0
1031.0 107.0
1031.0 197.0
1031.0 275.0
1038.0 31.0
1038.0 48.0
1038.0 65.0
1038.0 82.0
1038.0 99.0
1038.0 115.0
1038.0 132.0
1038.0 148.0
1038.0 165.0
1038.0 182.0
1038.0 198.0
1038.0 214.0
1038.0 231.0
1038.0 248.0
1038.0 265.0
1038.0 281.0
1038.0 298.0
1038.0 315.0
1038.0 333.0
1038.0 350.0
1038.0 367.0
1038.0 384.0
1068.0 36.0
1068.0 57.0
1068.0 78.0
1068.0 99.0
1068.0 120.0
1068.0 141.0
1068.0 162.0
1068.0 183.0
1068.0 204.0
1068.0 225.0
1068.0 246.0
1068.0 267.0
1068.0 288.0
1068.0 309.0
1068.0 330.0
1068.0 351.0
1068.0 372.0
1068.0 392.0
1075.0 36.0
1075.0 58.0
1075.0 80.0
1075.0 102.0
1075.0 124.0
1075.0 146.0
1075.0 168.0
1075.0 190.0
1075.0 212.0
1075.0 234.0
1075.0 256.0
1075.0 279.0
1075.0 301.0
1075.0 324.0
1075.0 346.0
1075.0 368.0
1075.0 390.0
1087.0 36.0
1087.0 58.0
1087.0 80.0
1087.0 102.0
1087.0 123.0
1087.0 144.0
1087.0 165.0
1087.0 186.0
1087.0 207.0
1087.0 228.0
1087.0 249.0
1087.0 270.0
1087.0 291.0
1087.0 312.0
1087.0 333.0
1087.0 355.0
1087.0 377.0
1087.0 397.0
1088.0 36.0
1088.0 58.0
1088.0 80.0
1088.0 103.0
1088.0 125.0
1088.0 147.0
1088.0 170.0
1088.0 192.0
1088.0 215.0
1088.0 236.0
1088.0 258.0
1088.0 281.0
1088.0 303.0
1088.0 325.0
1088.0 347.0
1088.0 369.0
1088.0 391.0
1099.0 272.0
1105.0 34.0
1105.0 53.0
1105.0 71.0
1105.0 89.0
1105.0 108.0
1105.0 126.0
1105.0 145.0
1105.0 163.0
1105.0 182.0
1105.0 200.0
1105.0 218.0
1105.0 237.0
1105.0 255.0
1105.0 274.0
1105.0 292.0
1105.0 310.0
1105.0 329.0
1105.0 348.0
1105.0 367.0
1105.0 385.0
1114.0 35.0
1114.0 56.0
1114.0 77.0
1114.0 99.0
1114.0 121.0
1114.0 141.0
1114.0 162.0
1114.0 183.0
1114.0 203.0
1114.0 223.0
1114.0 243.0
1114.0 264.0
1114.0 285.0
1114.0 306.0
1114.0 327.0
1114.0 348.0
1114.0 369.0
1114.0 390.0
1115.0 87.0
1115.0 171.0
1115.0 258.0
1115.0 336.0
1116.0 277.0
1118.0 36.0
1118.0 58.0
1118.0 81.0
1118.0 104.0
1118.0 126.0
1118.0 148.0
1118.0 170.0
1118.0 193.0
1118.0 214.0
1118.0 236.0
1118.0 258.0
1118.0 281.0
1118.0 301.0
1118.0 323.0
1118.0 345.0
1118.0 367.0
1118.0 388.0
1133.0 92.0
1133.0 269.0
1133.0 385.0
1134.0 89.0
1134.0 158.0
1134.0 242.0
1134.0 308.0
1134.0 385.0
1135.0 36.0
1135.0 59.0
1135.0 82.0
1135.0 104.0
1135.0 127.0
1135.0 150.0
1135.0 173.0
1135.0 196.0
1135.0 219.0
1135.0 243.0
1135.0 266.0
1135.0 288.0
1135.0 312.0
1135.0 334.0
1135.0 357.0
1135.0 380.0
1136.0 263.0
1136.0 385.0
1144.0 188.0
1144.0 269.0
1148.0 105.0
1148.0 178.0
1148.0 241.0
1148.0 297.0
1148.0 377.0
1156.0 30.0
1156.0 48.0
1156.0 66.0
1156.0 83.0
1156.0 100.0
1156.0 117.0
1156.0 134.0
1156.0 151.0
1156.0 168.0
1156.0 185.0
1156.0 202.0
1156.0 219.0
1156.0 236.0
1156.0 253.0
1156.0 270.0
1156.0 288.0
1156.0 305.0
1156.0 322.0
1156.0 340.0
1156.0 357.0
1156.0 374.0
1156.0 392.0
1165.0 30.0
1165.0 48.0
1165.0 66.0
1165.0 84.0
1165.0 103.0
1165.0 122.0
1165.0 140.0
1165.0 158.0
1165.0 177.0
1165.0 195.0
1165.0 213.0
1165.0 231.0
1165.0 250.0
1165.0 269.0
1165.0 287.0
1165.0 306.0
1165.0 325.0
1165.0 344.0
1165.0 362.0
1165.0 381.0
1172.0 30.0
1172.0 47.0
1172.0 64.0
1172.0 81.0
1172.0 98.0
1172.0 114.0
1172.0 131.0
1172.0 148.0
1172.0 165.0
1172.0 182.0
1172.0 199.0
1172.0 217.0
1172.0 234.0
1172.0 251.0
1172.0 268.0
1172.0 286.0
1172.0 303.0
1172.0 320.0
1172.0 338.0
1172.0 356.0
1172.0 373.0
1172.0 391.0
1174.0 112.0
1174.0 192.0
1174.0 271.0
1174.0 343.0
1204.0 37.0
1204.0 59.0
1204.0 81.0
1204.0 103.0
1204.0 125.0
1204.0 146.0
1204.0 168.0
1204.0 190.0
1204.0 212.0
1204.0 233.0
1204.0 255.0
1204.0 277.0
1204.0 298.0
1204.0 320.0
1204.0 342.0
1204.0 365.0
1204.0 386.0
1213.0 283.0
1222.0 36.0
1222.0 57.0
1222.0 78.0
1222.0 99.0
1222.0 119.0
1222.0 139.0
1222.0 160.0
1222.0 181.0
1222.0 202.0
1222.0 222.0
1222.0 242.0
1222.0 263.0
1222.0 283.0
1222.0 302.0
1222.0 322.0
1222.0 343.0
1222.0 363.0
1222.0 383.0
1223.0 198.0
1223.0 283.0
1225.0 108.0
1225.0 162.0
1225.0 223.0
1225.0 282.0
1225.0 342.0
1226.0 35.0
1226.0 55.0
1226.0 75.0
1226.0 94.0
1226.0 113.0
1226.0 132.0
1226.0 152.0
1226.0 172.0
1226.0 192.0
1226.0 211.0
1226.0 230.0
1226.0 249.0
1226.0 268.0
1226.0 288.0
1226.0 308.0
1226.0 328.0
1226.0 347.0
1226.0 367.0
1226.0 386.0
1236.0 109.0
1236.0 191.0
1236.0 276.0
1236.0 380.0
1238.0 288.0
1241.0 107.0
1241.0 186.0
1241.0 270.0
1241.0 357.0
1243.0 93.0
1243.0 174.0
1243.0 246.0
1243.0 301.0
1243.0 373.0
1251.0 30.0
1251.0 47.0
1251.0 64.0
1251.0 81.0
1251.0 98.0
1251.0 114.0
1251.0 130.0
1251.0 147.0
1251.0 164.0
1251.0 181.0
1251.0 198.0
1251.0 213.0
1251.0 230.0
1251.0 247.0
1251.0 264.0
1251.0 280.0
1251.0 296.0
1251.0 313.0
1251.0 331.0
1251.0 349.0
1251.0 365.0
1251.0 381.0
1251.0 399.0
1252.0 118.0
1252.0 222.0
1252.0 303.0
1253.0 30.0
1253.0 48.0
1253.0 66.0
1253.0 85.0
1253.0 104.0
1253.0 123.0
1253.0 142.0
1253.0 161.0
1253.0 180.0
1253.0 199.0
1253.0 218.0
1253.0 237.0
1253.0 256.0
1253.0 275.0
1253.0 294.0
1253.0 312.0
1253.0 331.0
1253.0 351.0
1253.0 370.0
1253.0 389.0
1254.0 35.0
1254.0 57.0
1254.0 78.0
1254.0 99.0
1254.0 120.0
1254.0 139.0
1254.0 159.0
1254.0 180.0
1254.0 201.0
1254.0 222.0
1254.0 243.0
1254.0 264.0
1254.0 284.0
1254.0 304.0
1254.0 325.0
1254.0 346.0
1254.0 366.0
1254.0 387.0
1257.0 94.0
1257.0 175.0
1257.0 262.0
1257.0 332.0
1262.0 98.0
1262.0 179.0
1262.0 258.0
1262.0 362.0
1263.0 201.0
1263.0 294.0
1271.0 129.0
1271.0 264.0
1300.0 111.0
1300.0 205.0
1300.0 286.0
1305.0 111.0
1305.0 204.0
1305.0 276.0
1305.0 374.0
1337.0 35.0
1337.0 56.0
1337.0 77.0
1337.0 98.0
1337.0 120.0
1337.0 141.0
1337.0 162.0
1337.0 183.0
1337.0 204.0
1337.0 225.0
1337.0 246.0
1337.0 267.0
1337.0 288.0
1337.0 309.0
1337.0 330.0
1337.0 351.0
1337.0 371.0
1337.0 391.0
1340.0 34.0
1340.0 54.0
1340.0 75.0
1340.0 96.0
1340.0 117.0
1340.0 137.0
1340.0 158.0
1340.0 178.0
1340.0 198.0
1340.0 219.0
1340.0 239.0
1340.0 260.0
1340.0 281.0
1340.0 302.0
1340.0 322.0
1340.0 342.0
1340.0 363.0
1340.0 383.0
1345.0 35.0
1345.0 57.0
1345.0 79.0
1345.0 101.0
1345.0 124.0
1345.0 146.0
1345.0 169.0
1345.0 191.0
1345.0 213.0
1345.0 235.0
1345.0 258.0
1345.0 280.0
1345.0 302.0
1345.0 324.0
1345.0 346.0
1345.0 368.0
1345.0 390.0
1355.0 72.0
1355.0 125.0
1355.0 186.0
1355.0 248.0
1355.0 300.0
1355.0 354.0
1365.0 140.0
1365.0 258.0
1365.0 365.0
1374.0 282.0
1381.0 274.0
1388.0 282.0
1390.0 30.0
1390.0 47.0
1390.0 64.0
1390.0 81.0
1390.0 98.0
1390.0 114.0
1390.0 131.0
1390.0 148.0
1390.0 165.0
1390.0 182.0
1390.0 198.0
1390.0 215.0
1390.0 232.0
1390.0 249.0
1390.0 265.0
1390.0 280.0
1390.0 297.0
1390.0 314.0
1390.0 331.0
1390.0 348.0
1390.0 364.0
1390.0 380.0
1390.0 399.0
1398.0 299.0
1404.0 32.0
1404.0 50.0
1404.0 68.0
1404.0 86.0
1404.0 103.0
1404.0 120.0
1404.0 138.0
1404.0 156.0
1404.0 174.0
1404.0 191.0
1404.0 209.0
1404.0 226.0
1404.0 243.0
1404.0 261.0
1404.0 278.0
1404.0 295.0
1404.0 312.0
1404.0 330.0
1404.0 348.0
1404.0 365.0
1404.0 383.0
1409.0 285.0
1415.0 131.0
1415.0 224.0
1415.0 371.0
1417.0 37.0
1417.0 61.0
1417.0 85.0
1417.0 109.0
1417.0 132.0
1417.0 155.0
1417.0 178.0
1417.0 202.0
1417.0 226.0
1417.0 250.0
1417.0 274.0
1417.0 298.0
1417.0 322.0
1417.0 346.0
1417.0 370.0
1417.0 393.0
1418.0 36.0
1418.0 58.0
1418.0 80.0
1418.0 102.0
1418.0 124.0
1418.0 146.0
1418.0 167.0
1418.0 190.0
1418.0 212.0
1418.0 234.0
1418.0 256.0
1418.0 278.0
1418.0 299.0
1418.0 322.0
1418.0 344.0
1418.0 367.0
1418.0 389.0
1419.0 110.0
1419.0 194.0
1419.0 278.0
1419.0 359.0
1423.0 35.0
1423.0 57.0
1423.0 78.0
1423.0 99.0
1423.0 120.0
1423.0 142.0
1423.0 163.0
1423.0 184.0
1423.0 205.0
1423.0 226.0
1423.0 247.0
1423.0 268.0
1423.0 289.0
1423.0 310.0
1423.0 331.0
1423.0 352.0
1423.0 373.0
1423.0 393.0
1433.0 104.0
1433.0 203.0
1433.0 273.0
1433.0 359.0
1434.0 115.0
1434.0 250.0
1434.0 337.0
1436.0 107.0
1436.0 193.0
1436.0 269.0
1436.0 373.0
1439.0 180.0
1439.0 276.0
1442.0 6.0
1442.0 9.0
1442.0 12.0
1442.0 15.0
1442.0 18.0
1442.0 21.0
1442.0 24.0
1442.0 27.0
1442.0 30.0
1442.0 33.0
1442.0 36.0
1442.0 39.0
1442.0 42.0
1442.0 45.0
1442.0 48.0
1442.0 51.0
1442.0 54.0
1442.0 57.0
1442.0 60.0
1442.0 63.0
1442.0 66.0
1442.0 69.0
1442.0 72.0
1442.0 75.0
1442.0 78.0
1442.0 81.0
1442.0 84.0
1442.0 87.0
1442.0 90.0
1442.0 93.0
1442.0 96.0
1442.0 99.0
1442.0 102.0
1442.0 105.0
1442.0 108.0
1442.0 111.0
1442.0 114.0
1442.0 117.0
1442.0 120.0
1442.0 123.0
1442.0 126.0
1442.0 129.0
1442.0 132.0
1442.0 135.0
1442.0 138.0
1442.0 141.0
1442.0 144.0
1442.0 147.0
1442.0 150.0
1442.0 153.0
1442.0 156.0
1442.0 159.0
1442.0 162.0
1442.0 165.0
1442.0 168.0
1442.0 171.0
1442.0 174.0
1442.0 177.0
1442.0 180.0
1442.0 183.0
1442.0 186.0
1442.0 189.0
1442.0 192.0
1442.0 195.0
1442.0 198.0
1442.0 201.0
1442.0 204.0
1442.0 207.0
1442.0 210.0
1442.0 213.0
1442.0 216.0
1442.0 219.0
1442.0 222.0
1442.0 225.0
1442.0 228.0
1442.0 231.0
1442.0 234.0
1442.0 237.0
1442.0 240.0
1442.0 243.0
1442.0 246.0
1442.0 249.0
1442.0 252.0
1442.0 255.0
1442.0 258.0
1442.0 261.0
1442.0 264.0
1442.0 267.0
1442.0 270.0
1442.0 273.0
1442.0 276.0
1442.0 279.0
1442.0 282.0
1442.0 285.0
1442.0 288.0
1442.0 291.0
1442.0 294.0
1442.0 297.0
1442.0 300.0
1442.0 303.0
1442.0 306.0
1442.0 309.0
1442.0 312.0
1442.0 315.0
1442.0 318.0
1442.0 321.0
1442.0 324.0
1442.0 327.0
1442.0 330.0
1442.0 333.0
1442.0 336.0
1442.0 339.0
1442.0 342.0
1442.0 345.0
1442.0 348.0
1442.0 351.0
1442.0 354.0
1442.0 357.0
1442.0 360.0
1442.0 363.0
1442.0 366.0
1442.0 369.0
1442.0 372.0
1442.0 375.0
1442.0 378.0
1442.0 381.0
1442.0 384.0
1442.0 387.0
1442.0 390.0
1442.0 393.0
1442.0 396.0
1442.0 400.0
1445.0 118.0
1445.0 226.0
1445.0 296.0
1446.0 105.0
1446.0 186.0
1446.0 270.0
1446.0 343.0
1447.0 284.0
