14.0 53.0
14.0 99.0
14.0 141.0
14.0 184.0
14.0 226.0
14.0 268.0
14.0 306.0
14.0 341.0
14.0 372.0
14.0 400.0
26.0 6.0
26.0 11.0
26.0 14.0
26.0 19.0
26.0 22.0
26.0 27.0
26.0 30.0
26.0 35.0
26.0 39.0
26.0 43.0
26.0 47.0
26.0 51.0
26.0 55.0
26.0 59.0
26.0 63.0
26.0 67.0
26.0 71.0
26.0 75.0
26.0 79.0
26.0 83.0
26.0 87.0
26.0 91.0
26.0 95.0
26.0 99.0
26.0 103.0
26.0 107.0
26.0 111.0
26.0 115.0
26.0 119.0
26.0 123.0
26.0 127.0
26.0 131.0
26.0 135.0
26.0 139.0
26.0 143.0
26.0 147.0
26.0 151.0
26.0 155.0
26.0 159.0
26.0 163.0
26.0 167.0
26.0 171.0
26.0 175.0
26.0 179.0
26.0 183.0
26.0 187.0
26.0 191.0
26.0 195.0
26.0 199.0
26.0 203.0
26.0 207.0
26.0 211.0
26.0 215.0
26.0 219.0
26.0 223.0
26.0 227.0
26.0 231.0
26.0 235.0
26.0 239.0
26.0 243.0
26.0 247.0
26.0 251.0
26.0 255.0
26.0 259.0
26.0 263.0
26.0 267.0
26.0 271.0
26.0 275.0
26.0 279.0
26.0 283.0
26.0 287.0
26.0 291.0
26.0 295.0
26.0 299.0
26.0 303.0
26.0 307.0
26.0 311.0
26.0 315.0
26.0 319.0
26.0 323.0
26.0 327.0
26.0 331.0
26.0 335.0
26.0 339.0
26.0 343.0
26.0 347.0
26.0 351.0
26.0 355.0
26.0 359.0
26.0 363.0
26.0 367.0
26.0 371.0
26.0 375.0
26.0 379.0
26.0 383.0
26.0 387.0
26.0 391.0
26.0 395.0
26.0 400.0
62.0 56.0
62.0 101.0
62.0 146.0
62.0 189.0
62.0 233.0
62.0 278.0
62.0 315.0
62.0 350.0
62.0 379.0
87.0 54.0
87.0 101.0
87.0 147.0
87.0 197.0
87.0 245.0
87.0 293.0
87.0 331.0
87.0 365.0
87.0 396.0
112.0 60.0
112.0 100.0
112.0 133.0
112.0 168.0
112.0 202.0
112.0 236.0
112.0 262.0
112.0 288.0
112.0 314.0
112.0 340.0
112.0 368.0
112.0 393.0
129.0 59.0
129.0 99.0
129.0 135.0
129.0 170.0
129.0 206.0
129.0 240.0
129.0 268.0
129.0 296.0
129.0 324.0
129.0 352.0
129.0 380.0
157.0 57.0
157.0 104.0
157.0 149.0
157.0 194.0
157.0 238.0
157.0 281.0
157.0 317.0
157.0 353.0
157.0 381.0
159.0 55.0
159.0 98.0
159.0 141.0
159.0 187.0
159.0 230.0
159.0 273.0
159.0 310.0
159.0 345.0
159.0 375.0
165.0 69.0
165.0 125.0
165.0 183.0
165.0 244.0
165.0 300.0
165.0 344.0
165.0 380.0
166.0 56.0
166.0 100.0
166.0 146.0
166.0 189.0
166.0 233.0
166.0 278.0
166.0 316.0
166.0 352.0
166.0 381.0
167.0 56.0
167.0 104.0
167.0 152.0
167.0 200.0
167.0 247.0
167.0 292.0
167.0 329.0
167.0 363.0
167.0 392.0
185.0 56.0
185.0 99.0
185.0 142.0
185.0 182.0
185.0 224.0
185.0 266.0
185.0 302.0
185.0 335.0
185.0 366.0
185.0 392.0
217.0 58.0
217.0 98.0
217.0 131.0
217.0 166.0
217.0 202.0
217.0 235.0
217.0 263.0
217.0 291.0
217.0 319.0
217.0 347.0
217.0 375.0
224.0 61.0
224.0 101.0
224.0 134.0
224.0 166.0
224.0 198.0
224.0 230.0
224.0 256.0
224.0 281.0
224.0 307.0
224.0 332.0
224.0 357.0
224.0 381.0
227.0 62.0
227.0 103.0
227.0 141.0
227.0 179.0
227.0 216.0
227.0 247.0
227.0 275.0
227.0 304.0
227.0 333.0
227.0 363.0
227.0 391.0
232.0 58.0
232.0 97.0
232.0 128.0
232.0 158.0
232.0 190.0
232.0 222.0
232.0 250.0
232.0 275.0
232.0 300.0
232.0 325.0
232.0 350.0
232.0 374.0
232.0 399.0
241.0 59.0
241.0 98.0
241.0 131.0
241.0 163.0
241.0 197.0
241.0 228.0
241.0 255.0
241.0 281.0
241.0 306.0
241.0 331.0
241.0 357.0
241.0 382.0
258.0 62.0
258.0 101.0
258.0 137.0
258.0 172.0
258.0 208.0
258.0 241.0
258.0 268.0
258.0 296.0
258.0 324.0
258.0 352.0
258.0 380.0
259.0 61.0
259.0 101.0
259.0 138.0
259.0 175.0
259.0 212.0
259.0 244.0
259.0 272.0
259.0 300.0
259.0 328.0
259.0 356.0
259.0 385.0
286.0 56.0
286.0 98.0
286.0 140.0
286.0 181.0
286.0 225.0
286.0 269.0
286.0 305.0
286.0 341.0
286.0 372.0
286.0 399.0
296.0 56.0
296.0 98.0
296.0 138.0
296.0 177.0
296.0 213.0
296.0 252.0
296.0 289.0
296.0 320.0
296.0 349.0
296.0 376.0
303.0 52.0
303.0 89.0
303.0 125.0
303.0 161.0
303.0 197.0
303.0 236.0
303.0 274.0
303.0 308.0
303.0 338.0
303.0 366.0
303.0 391.0
306.0 56.0
306.0 103.0
306.0 147.0
306.0 193.0
306.0 237.0
306.0 279.0
306.0 315.0
306.0 350.0
306.0 379.0
328.0 58.0
328.0 98.0
328.0 134.0
328.0 170.0
328.0 206.0
328.0 240.0
328.0 268.0
328.0 296.0
328.0 326.0
328.0 354.0
328.0 384.0
334.0 63.0
334.0 103.0
334.0 138.0
334.0 173.0
334.0 207.0
334.0 240.0
334.0 267.0
334.0 294.0
334.0 320.0
334.0 347.0
334.0 374.0
334.0 400.0
347.0 34.0
347.0 56.0
347.0 75.0
347.0 95.0
347.0 113.0
347.0 132.0
347.0 151.0
347.0 170.0
347.0 190.0
347.0 209.0
347.0 227.0
347.0 244.0
347.0 261.0
347.0 278.0
347.0 295.0
347.0 311.0
347.0 326.0
347.0 342.0
347.0 357.0
347.0 372.0
347.0 386.0
366.0 61.0
366.0 100.0
366.0 135.0
366.0 170.0
366.0 205.0
366.0 238.0
366.0 266.0
366.0 292.0
366.0 318.0
366.0 344.0
366.0 371.0
366.0 397.0
382.0 67.0
382.0 108.0
382.0 146.0
382.0 185.0
382.0 224.0
382.0 255.0
382.0 284.0
382.0 314.0
382.0 343.0
382.0 372.0
428.0 61.0
428.0 113.0
428.0 162.0
428.0 209.0
428.0 253.0
428.0 294.0
428.0 329.0
428.0 361.0
428.0 389.0
434.0 56.0
434.0 104.0
434.0 154.0
434.0 204.0
434.0 254.0
434.0 300.0
434.0 340.0
434.0 372.0
435.0 56.0
435.0 100.0
435.0 141.0
435.0 183.0
435.0 228.0
435.0 272.0
435.0 309.0
435.0 344.0
435.0 374.0
450.0 50.0
450.0 90.0
450.0 128.0
450.0 168.0
450.0 206.0
450.0 245.0
450.0 283.0
450.0 316.0
450.0 348.0
450.0 377.0
456.0 159.0
456.0 243.0
456.0 288.0
456.0 325.0
456.0 360.0
456.0 388.0
477.0 57.0
477.0 101.0
477.0 147.0
477.0 190.0
477.0 232.0
477.0 274.0
477.0 311.0
477.0 347.0
477.0 377.0
487.0 61.0
487.0 101.0
487.0 137.0
487.0 172.0
487.0 206.0
487.0 238.0
487.0 266.0
487.0 293.0
487.0 321.0
487.0 349.0
487.0 377.0
558.0 58.0
558.0 102.0
558.0 145.0
558.0 187.0
558.0 229.0
558.0 273.0
558.0 309.0
558.0 342.0
558.0 370.0
558.0 397.0
580.0 61.0
580.0 110.0
580.0 157.0
580.0 204.0
580.0 253.0
580.0 298.0
580.0 334.0
580.0 366.0
580.0 396.0
591.0 122.0
591.0 218.0
591.0 263.0
591.0 300.0
591.0 330.0
591.0 362.0
591.0 387.0
599.0 34.0
599.0 56.0
599.0 79.0
599.0 100.0
599.0 120.0
599.0 140.0
599.0 160.0
599.0 180.0
599.0 200.0
599.0 220.0
599.0 239.0
599.0 257.0
599.0 275.0
599.0 293.0
599.0 310.0
599.0 327.0
599.0 344.0
599.0 359.0
599.0 375.0
599.0 390.0
605.0 57.0
605.0 96.0
605.0 128.0
605.0 161.0
605.0 191.0
605.0 223.0
605.0 248.0
605.0 273.0
605.0 297.0
605.0 322.0
605.0 345.0
605.0 368.0
605.0 392.0
607.0 58.0
607.0 105.0
607.0 147.0
607.0 189.0
607.0 228.0
607.0 268.0
607.0 304.0
607.0 336.0
607.0 368.0
607.0 396.0
623.0 61.0
623.0 101.0
623.0 135.0
623.0 170.0
623.0 205.0
623.0 237.0
623.0 265.0
623.0 293.0
623.0 320.0
623.0 348.0
623.0 376.0
632.0 59.0
632.0 97.0
632.0 128.0
632.0 162.0
632.0 193.0
632.0 226.0
632.0 252.0
632.0 278.0
632.0 304.0
632.0 329.0
632.0 353.0
632.0 379.0
680.0 7.0
680.0 13.0
680.0 18.0
680.0 23.0
680.0 28.0
680.0 33.0
680.0 39.0
680.0 45.0
680.0 51.0
680.0 57.0
680.0 63.0
680.0 69.0
680.0 75.0
680.0 81.0
680.0 87.0
680.0 93.0
680.0 99.0
680.0 105.0
680.0 111.0
680.0 117.0
680.0 123.0
680.0 129.0
680.0 135.0
680.0 141.0
680.0 147.0
680.0 153.0
680.0 159.0
680.0 165.0
680.0 171.0
680.0 177.0
680.0 183.0
680.0 189.0
680.0 195.0
680.0 201.0
680.0 207.0
680.0 213.0
680.0 219.0
680.0 225.0
680.0 231.0
680.0 237.0
680.0 243.0
680.0 249.0
680.0 255.0
680.0 261.0
680.0 267.0
680.0 273.0
680.0 279.0
680.0 285.0
680.0 290.0
680.0 295.0
680.0 300.0
680.0 305.0
680.0 310.0
680.0 315.0
680.0 320.0
680.0 325.0
680.0 330.0
680.0 335.0
680.0 340.0
680.0 345.0
680.0 350.0
680.0 354.0
680.0 358.0
680.0 362.0
680.0 366.0
680.0 370.0
680.0 374.0
680.0 378.0
680.0 382.0
680.0 386.0
680.0 390.0
680.0 394.0
696.0 64.0
696.0 107.0
696.0 149.0
696.0 193.0
696.0 238.0
696.0 279.0
696.0 325.0
696.0 365.0
708.0 70.0
708.0 113.0
708.0 153.0
708.0 193.0
708.0 233.0
708.0 265.0
708.0 297.0
708.0 329.0
708.0 361.0
708.0 393.0
709.0 61.0
709.0 106.0
709.0 150.0
709.0 193.0
709.0 237.0
709.0 277.0
709.0 310.0
709.0 341.0
709.0 370.0
709.0 397.0
714.0 311.0
714.0 369.0
718.0 57.0
718.0 101.0
718.0 142.0
718.0 181.0
718.0 223.0
718.0 261.0
718.0 298.0
718.0 330.0
718.0 361.0
718.0 386.0
725.0 113.0
725.0 198.0
725.0 249.0
725.0 292.0
725.0 332.0
725.0 369.0
734.0 61.0
734.0 105.0
734.0 147.0
734.0 189.0
734.0 232.0
734.0 273.0
734.0 313.0
734.0 351.0
734.0 383.0
735.0 111.0
735.0 177.0
735.0 238.0
735.0 275.0
735.0 310.0
735.0 347.0
735.0 382.0
736.0 105.0
736.0 171.0
736.0 233.0
736.0 270.0
736.0 302.0
736.0 333.0
736.0 362.0
736.0 386.0
738.0 322.0
738.0 375.0
744.0 63.0
744.0 106.0
744.0 147.0
744.0 190.0
744.0 233.0
744.0 273.0
744.0 313.0
744.0 353.0
744.0 394.0
745.0 62.0
745.0 102.0
745.0 138.0
745.0 173.0
745.0 208.0
745.0 240.0
745.0 268.0
745.0 296.0
745.0 324.0
745.0 352.0
745.0 380.0
763.0 9.0
763.0 15.0
763.0 21.0
763.0 27.0
763.0 33.0
763.0 39.0
763.0 45.0
763.0 51.0
763.0 57.0
763.0 63.0
763.0 69.0
763.0 75.0
763.0 81.0
763.0 86.0
763.0 91.0
763.0 96.0
763.0 101.0
763.0 106.0
763.0 111.0
763.0 116.0
763.0 121.0
763.0 126.0
763.0 131.0
763.0 136.0
763.0 141.0
763.0 146.0
763.0 151.0
763.0 156.0
763.0 161.0
763.0 166.0
763.0 171.0
763.0 176.0
763.0 181.0
763.0 186.0
763.0 191.0
763.0 196.0
763.0 201.0
763.0 206.0
763.0 211.0
763.0 216.0
763.0 221.0
763.0 226.0
763.0 230.0
763.0 234.0
763.0 238.0
763.0 242.0
763.0 246.0
763.0 250.0
763.0 254.0
763.0 258.0
763.0 262.0
763.0 266.0
763.0 270.0
763.0 274.0
763.0 278.0
763.0 282.0
763.0 286.0
763.0 290.0
763.0 294.0
763.0 298.0
763.0 302.0
763.0 306.0
763.0 310.0
763.0 314.0
763.0 318.0
763.0 322.0
763.0 326.0
763.0 330.0
763.0 334.0
763.0 338.0
763.0 342.0
763.0 346.0
763.0 350.0
763.0 354.0
763.0 358.0
763.0 362.0
763.0 366.0
763.0 370.0
763.0 374.0
763.0 378.0
763.0 382.0
763.0 386.0
763.0 390.0
763.0 394.0
841.0 246.0
841.0 293.0
841.0 333.0
841.0 368.0
841.0 400.0
842.0 357.0
843.0 114.0
843.0 181.0
843.0 241.0
843.0 278.0
843.0 312.0
843.0 344.0
843.0 372.0
843.0 398.0
852.0 321.0
852.0 371.0
857.0 314.0
857.0 364.0
857.0 400.0
860.0 105.0
860.0 160.0
860.0 215.0
860.0 255.0
860.0 291.0
860.0 319.0
860.0 350.0
860.0 375.0
860.0 399.0
861.0 110.0
861.0 177.0
861.0 242.0
861.0 279.0
861.0 314.0
861.0 350.0
861.0 379.0
866.0 40.0
866.0 69.0
866.0 97.0
866.0 122.0
866.0 147.0
866.0 172.0
866.0 197.0
866.0 221.0
866.0 244.0
866.0 266.0
866.0 287.0
866.0 307.0
866.0 326.0
866.0 345.0
866.0 363.0
866.0 380.0
866.0 397.0
880.0 124.0
880.0 203.0
880.0 249.0
880.0 286.0
880.0 322.0
880.0 358.0
880.0 394.0
941.0 363.0
949.0 316.0
949.0 364.0
949.0 399.0
950.0 365.0
959.0 346.0
959.0 392.0
973.0 314.0
973.0 368.0
991.0 320.0
991.0 371.0
1001.0 242.0
1001.0 291.0
1001.0 338.0
1001.0 387.0
1012.0 135.0
1012.0 235.0
1012.0 277.0
1012.0 319.0
1012.0 361.0
1016.0 242.0
1016.0 290.0
1016.0 336.0
1016.0 381.0
1038.0 130.0
1038.0 220.0
1038.0 265.0
1038.0 309.0
1038.0 351.0
1038.0 389.0
1068.0 340.0
1068.0 387.0
1075.0 340.0
1075.0 388.0
1087.0 333.0
1087.0 381.0
1088.0 362.0
1105.0 297.0
1105.0 350.0
1105.0 386.0
1114.0 314.0
1114.0 363.0
1118.0 321.0
1118.0 376.0
1135.0 368.0
1156.0 139.0
1156.0 225.0
1156.0 266.0
1156.0 305.0
1156.0 345.0
1156.0 386.0
1165.0 124.0
1165.0 215.0
1165.0 261.0
1165.0 305.0
1165.0 350.0
1165.0 393.0
1172.0 136.0
1172.0 226.0
1172.0 272.0
1172.0 315.0
1172.0 358.0
1172.0 399.0
1204.0 359.0
1222.0 321.0
1222.0 372.0
1226.0 305.0
1226.0 356.0
1226.0 394.0
1251.0 133.0
1251.0 239.0
1251.0 281.0
1251.0 324.0
1251.0 366.0
1253.0 182.0
1253.0 247.0
1253.0 295.0
1253.0 343.0
1253.0 387.0
1254.0 332.0
1254.0 378.0
1337.0 327.0
1337.0 378.0
1340.0 331.0
1340.0 379.0
1345.0 361.0
1390.0 187.0
1390.0 247.0
1390.0 289.0
1390.0 332.0
1390.0 373.0
1404.0 233.0
1404.0 278.0
1404.0 322.0
1404.0 368.0
1417.0 368.0
1418.0 362.0
1423.0 361.0
1442.0 9.0
1442.0 15.0
1442.0 21.0
1442.0 27.0
1442.0 33.0
1442.0 39.0
1442.0 45.0
1442.0 51.0
1442.0 57.0
1442.0 63.0
1442.0 69.0
1442.0 75.0
1442.0 81.0
1442.0 87.0
1442.0 93.0
1442.0 99.0
1442.0 105.0
1442.0 111.0
1442.0 117.0
1442.0 123.0
1442.0 129.0
1442.0 135.0
1442.0 141.0
1442.0 147.0
1442.0 153.0
1442.0 159.0
1442.0 165.0
1442.0 171.0
1442.0 177.0
1442.0 183.0
1442.0 189.0
1442.0 195.0
1442.0 201.0
1442.0 207.0
1442.0 213.0
1442.0 219.0
1442.0 225.0
1442.0 231.0
1442.0 237.0
1442.0 243.0
1442.0 249.0
1442.0 255.0
1442.0 261.0
1442.0 267.0
1442.0 273.0
1442.0 279.0
1442.0 285.0
1442.0 291.0
1442.0 297.0
1442.0 303.0
1442.0 309.0
1442.0 315.0
1442.0 321.0
1442.0 327.0
1442.0 333.0
1442.0 339.0
1442.0 345.0
1442.0 351.0
1442.0 357.0
1442.0 363.0
1442.0 369.0
1442.0 375.0
1442.0 381.0
1442.0 387.0
1442.0 393.0
