14.0 49.0
14.0 78.0
14.0 106.0
14.0 134.0
14.0 162.0
14.0 190.0
14.0 218.0
14.0 246.0
14.0 274.0
14.0 302.0
14.0 330.0
14.0 362.0
26.0 6.0
26.0 11.0
26.0 14.0
26.0 19.0
26.0 22.0
26.0 27.0
26.0 30.0
26.0 35.0
26.0 38.0
26.0 43.0
26.0 47.0
26.0 51.0
26.0 55.0
26.0 59.0
26.0 63.0
26.0 67.0
26.0 71.0
26.0 75.0
26.0 79.0
26.0 83.0
26.0 87.0
26.0 91.0
26.0 95.0
26.0 99.0
26.0 103.0
26.0 107.0
26.0 111.0
26.0 115.0
26.0 119.0
26.0 123.0
26.0 127.0
26.0 131.0
26.0 135.0
26.0 139.0
26.0 143.0
26.0 147.0
26.0 151.0
26.0 155.0
26.0 159.0
26.0 163.0
26.0 167.0
26.0 171.0
26.0 175.0
26.0 179.0
26.0 183.0
26.0 187.0
26.0 191.0
26.0 195.0
26.0 199.0
26.0 203.0
26.0 207.0
26.0 211.0
26.0 215.0
26.0 219.0
26.0 223.0
26.0 227.0
26.0 231.0
26.0 235.0
26.0 239.0
26.0 243.0
26.0 247.0
26.0 251.0
26.0 255.0
26.0 259.0
26.0 263.0
26.0 267.0
26.0 271.0
26.0 275.0
26.0 279.0
26.0 283.0
26.0 287.0
26.0 291.0
26.0 295.0
26.0 299.0
26.0 303.0
26.0 307.0
26.0 311.0
26.0 315.0
26.0 319.0
26.0 323.0
26.0 327.0
26.0 331.0
26.0 335.0
26.0 339.0
26.0 343.0
26.0 347.0
26.0 351.0
26.0 355.0
26.0 359.0
26.0 363.0
26.0 367.0
26.0 371.0
26.0 375.0
26.0 379.0
26.0 383.0
26.0 387.0
26.0 391.0
26.0 395.0
26.0 400.0
62.0 50.0
62.0 79.0
62.0 106.0
62.0 133.0
62.0 161.0
62.0 189.0
62.0 217.0
62.0 245.0
62.0 273.0
62.0 301.0
62.0 329.0
62.0 362.0
87.0 50.0
87.0 81.0
87.0 111.0
87.0 142.0
87.0 171.0
87.0 202.0
87.0 233.0
87.0 263.0
87.0 293.0
87.0 322.0
87.0 357.0
112.0 58.0
112.0 96.0
112.0 136.0
112.0 176.0
112.0 214.0
112.0 252.0
112.0 291.0
112.0 329.0
112.0 370.0
129.0 59.0
129.0 102.0
129.0 143.0
129.0 184.0
129.0 226.0
129.0 267.0
129.0 306.0
129.0 346.0
129.0 387.0
157.0 53.0
157.0 81.0
157.0 110.0
157.0 138.0
157.0 166.0
157.0 194.0
157.0 222.0
157.0 250.0
157.0 278.0
157.0 306.0
157.0 334.0
157.0 367.0
159.0 49.0
159.0 78.0
159.0 106.0
159.0 134.0
159.0 162.0
159.0 190.0
159.0 218.0
159.0 246.0
159.0 274.0
159.0 302.0
159.0 330.0
159.0 365.0
165.0 54.0
165.0 86.0
165.0 118.0
165.0 150.0
165.0 182.0
165.0 214.0
165.0 246.0
165.0 277.0
165.0 309.0
165.0 341.0
165.0 385.0
166.0 49.0
166.0 78.0
166.0 106.0
166.0 134.0
166.0 162.0
166.0 190.0
166.0 218.0
166.0 246.0
166.0 274.0
166.0 302.0
166.0 330.0
166.0 364.0
167.0 53.0
167.0 84.0
167.0 113.0
167.0 141.0
167.0 169.0
167.0 197.0
167.0 225.0
167.0 253.0
167.0 281.0
167.0 310.0
167.0 340.0
167.0 376.0
185.0 50.0
185.0 78.0
185.0 106.0
185.0 133.0
185.0 160.0
185.0 187.0
185.0 214.0
185.0 242.0
185.0 270.0
185.0 298.0
185.0 325.0
185.0 356.0
185.0 394.0
217.0 58.0
217.0 99.0
217.0 142.0
217.0 183.0
217.0 225.0
217.0 267.0
217.0 310.0
217.0 352.0
217.0 394.0
224.0 58.0
224.0 98.0
224.0 137.0
224.0 174.0
224.0 213.0
224.0 250.0
224.0 289.0
224.0 329.0
224.0 369.0
227.0 62.0
227.0 110.0
227.0 154.0
227.0 200.0
227.0 243.0
227.0 290.0
227.0 335.0
227.0 381.0
232.0 58.0
232.0 96.0
232.0 135.0
232.0 172.0
232.0 214.0
232.0 255.0
232.0 294.0
232.0 333.0
232.0 370.0
241.0 59.0
241.0 99.0
241.0 137.0
241.0 176.0
241.0 213.0
241.0 250.0
241.0 291.0
241.0 329.0
241.0 369.0
258.0 62.0
258.0 105.0
258.0 148.0
258.0 192.0
258.0 236.0
258.0 280.0
258.0 322.0
258.0 364.0
259.0 61.0
259.0 109.0
259.0 153.0
259.0 200.0
259.0 248.0
259.0 296.0
259.0 341.0
259.0 385.0
286.0 53.0
286.0 82.0
286.0 109.0
286.0 137.0
286.0 165.0
286.0 193.0
286.0 221.0
286.0 249.0
286.0 277.0
286.0 305.0
286.0 334.0
286.0 370.0
296.0 52.0
296.0 78.0
296.0 105.0
296.0 129.0
296.0 156.0
296.0 181.0
296.0 207.0
296.0 233.0
296.0 258.0
296.0 284.0
296.0 309.0
296.0 335.0
296.0 366.0
303.0 49.0
303.0 76.0
303.0 101.0
303.0 126.0
303.0 151.0
303.0 176.0
303.0 201.0
303.0 226.0
303.0 252.0
303.0 277.0
303.0 303.0
303.0 328.0
303.0 356.0
303.0 389.0
306.0 52.0
306.0 81.0
306.0 109.0
306.0 137.0
306.0 165.0
306.0 194.0
306.0 223.0
306.0 252.0
306.0 280.0
306.0 308.0
306.0 336.0
306.0 371.0
328.0 59.0
328.0 106.0
328.0 155.0
328.0 207.0
328.0 255.0
328.0 304.0
328.0 358.0
334.0 63.0
334.0 107.0
334.0 153.0
334.0 202.0
334.0 250.0
334.0 298.0
334.0 340.0
334.0 386.0
347.0 34.0
347.0 55.0
347.0 72.0
347.0 88.0
347.0 105.0
347.0 122.0
347.0 139.0
347.0 156.0
347.0 172.0
347.0 188.0
347.0 205.0
347.0 222.0
347.0 239.0
347.0 256.0
347.0 271.0
347.0 289.0
347.0 306.0
347.0 323.0
347.0 340.0
347.0 358.0
347.0 377.0
347.0 398.0
366.0 61.0
366.0 103.0
366.0 143.0
366.0 183.0
366.0 223.0
366.0 261.0
366.0 303.0
366.0 344.0
366.0 385.0
382.0 67.0
382.0 116.0
382.0 164.0
382.0 212.0
382.0 260.0
382.0 308.0
382.0 356.0
428.0 54.0
428.0 82.0
428.0 111.0
428.0 140.0
428.0 168.0
428.0 198.0
428.0 227.0
428.0 255.0
428.0 285.0
428.0 314.0
428.0 345.0
428.0 382.0
434.0 53.0
434.0 82.0
434.0 112.0
434.0 141.0
434.0 172.0
434.0 201.0
434.0 229.0
434.0 258.0
434.0 288.0
434.0 317.0
434.0 348.0
434.0 389.0
435.0 52.0
435.0 80.0
435.0 108.0
435.0 136.0
435.0 164.0
435.0 193.0
435.0 221.0
435.0 248.0
435.0 276.0
435.0 304.0
435.0 332.0
435.0 365.0
450.0 47.0
450.0 75.0
450.0 102.0
450.0 128.0
450.0 155.0
450.0 181.0
450.0 207.0
450.0 235.0
450.0 261.0
450.0 288.0
450.0 315.0
450.0 341.0
450.0 376.0
456.0 73.0
456.0 118.0
456.0 162.0
456.0 207.0
456.0 255.0
456.0 298.0
456.0 346.0
477.0 52.0
477.0 80.0
477.0 108.0
477.0 135.0
477.0 163.0
477.0 191.0
477.0 219.0
477.0 247.0
477.0 275.0
477.0 303.0
477.0 331.0
477.0 367.0
487.0 60.0
487.0 105.0
487.0 150.0
487.0 193.0
487.0 236.0
487.0 282.0
487.0 328.0
487.0 372.0
558.0 53.0
558.0 79.0
558.0 106.0
558.0 132.0
558.0 158.0
558.0 185.0
558.0 211.0
558.0 237.0
558.0 263.0
558.0 290.0
558.0 318.0
558.0 346.0
558.0 380.0
580.0 52.0
580.0 81.0
580.0 112.0
580.0 143.0
580.0 175.0
580.0 204.0
580.0 233.0
580.0 263.0
580.0 294.0
580.0 324.0
580.0 357.0
591.0 69.0
591.0 108.0
591.0 146.0
591.0 184.0
591.0 224.0
591.0 264.0
591.0 302.0
591.0 338.0
599.0 34.0
599.0 55.0
599.0 73.0
599.0 90.0
599.0 109.0
599.0 126.0
599.0 144.0
599.0 162.0
599.0 179.0
599.0 197.0
599.0 214.0
599.0 231.0
599.0 249.0
599.0 266.0
599.0 284.0
599.0 301.0
599.0 319.0
599.0 337.0
599.0 356.0
599.0 376.0
599.0 398.0
605.0 57.0
605.0 94.0
605.0 129.0
605.0 165.0
605.0 201.0
605.0 237.0
605.0 272.0
605.0 308.0
605.0 344.0
605.0 381.0
607.0 54.0
607.0 81.0
607.0 108.0
607.0 136.0
607.0 162.0
607.0 190.0
607.0 217.0
607.0 244.0
607.0 270.0
607.0 298.0
607.0 326.0
607.0 354.0
607.0 392.0
623.0 61.0
623.0 107.0
623.0 151.0
623.0 194.0
623.0 241.0
623.0 289.0
623.0 336.0
623.0 378.0
632.0 59.0
632.0 97.0
632.0 133.0
632.0 169.0
632.0 206.0
632.0 242.0
632.0 281.0
632.0 318.0
632.0 354.0
632.0 389.0
680.0 7.0
680.0 13.0
680.0 18.0
680.0 23.0
680.0 28.0
680.0 33.0
680.0 38.0
680.0 43.0
680.0 48.0
680.0 52.0
680.0 56.0
680.0 60.0
680.0 64.0
680.0 68.0
680.0 72.0
680.0 76.0
680.0 80.0
680.0 84.0
680.0 88.0
680.0 92.0
680.0 96.0
680.0 100.0
680.0 104.0
680.0 108.0
680.0 112.0
680.0 116.0
680.0 120.0
680.0 124.0
680.0 128.0
680.0 132.0
680.0 136.0
680.0 140.0
680.0 144.0
680.0 148.0
680.0 152.0
680.0 156.0
680.0 160.0
680.0 164.0
680.0 168.0
680.0 172.0
680.0 176.0
680.0 180.0
680.0 184.0
680.0 188.0
680.0 192.0
680.0 196.0
680.0 200.0
680.0 204.0
680.0 208.0
680.0 212.0
680.0 216.0
680.0 220.0
680.0 224.0
680.0 228.0
680.0 232.0
680.0 236.0
680.0 240.0
680.0 244.0
680.0 248.0
680.0 252.0
680.0 256.0
680.0 260.0
680.0 264.0
680.0 268.0
680.0 272.0
680.0 276.0
680.0 280.0
680.0 284.0
680.0 288.0
680.0 292.0
680.0 296.0
680.0 300.0
680.0 304.0
680.0 308.0
680.0 312.0
680.0 316.0
680.0 320.0
680.0 324.0
680.0 328.0
680.0 332.0
680.0 336.0
680.0 341.0
680.0 345.0
680.0 351.0
680.0 356.0
680.0 361.0
680.0 366.0
680.0 371.0
680.0 377.0
680.0 383.0
680.0 389.0
680.0 395.0
696.0 65.0
696.0 109.0
696.0 153.0
696.0 197.0
696.0 241.0
696.0 285.0
696.0 325.0
696.0 360.0
696.0 390.0
708.0 70.0
708.0 125.0
708.0 183.0
708.0 238.0
708.0 293.0
708.0 349.0
709.0 53.0
709.0 79.0
709.0 107.0
709.0 133.0
709.0 159.0
709.0 186.0
709.0 211.0
709.0 238.0
709.0 265.0
709.0 291.0
709.0 318.0
709.0 346.0
709.0 381.0
714.0 74.0
714.0 117.0
714.0 159.0
714.0 201.0
714.0 243.0
714.0 286.0
714.0 324.0
714.0 369.0
718.0 52.0
718.0 78.0
718.0 105.0
718.0 130.0
718.0 157.0
718.0 184.0
718.0 210.0
718.0 237.0
718.0 263.0
718.0 289.0
718.0 316.0
718.0 342.0
718.0 375.0
725.0 149.0
725.0 304.0
725.0 364.0
734.0 58.0
734.0 93.0
734.0 130.0
734.0 166.0
734.0 201.0
734.0 239.0
734.0 279.0
734.0 314.0
734.0 344.0
734.0 375.0
735.0 225.0
735.0 326.0
735.0 382.0
736.0 66.0
736.0 107.0
736.0 144.0
736.0 182.0
736.0 219.0
736.0 258.0
736.0 295.0
736.0 332.0
736.0 379.0
738.0 72.0
738.0 117.0
738.0 160.0
738.0 202.0
738.0 244.0
738.0 287.0
738.0 326.0
738.0 372.0
744.0 64.0
744.0 111.0
744.0 154.0
744.0 197.0
744.0 239.0
744.0 285.0
744.0 325.0
744.0 361.0
744.0 390.0
745.0 62.0
745.0 106.0
745.0 149.0
745.0 193.0
745.0 234.0
745.0 278.0
745.0 324.0
745.0 371.0
763.0 9.0
763.0 15.0
763.0 21.0
763.0 27.0
763.0 33.0
763.0 39.0
763.0 45.0
763.0 51.0
763.0 57.0
763.0 63.0
763.0 69.0
763.0 75.0
763.0 81.0
763.0 87.0
763.0 93.0
763.0 99.0
763.0 105.0
763.0 111.0
763.0 117.0
763.0 123.0
763.0 129.0
763.0 135.0
763.0 141.0
763.0 147.0
763.0 153.0
763.0 159.0
763.0 165.0
763.0 171.0
763.0 177.0
763.0 183.0
763.0 189.0
763.0 195.0
763.0 201.0
763.0 207.0
763.0 213.0
763.0 219.0
763.0 225.0
763.0 231.0
763.0 237.0
763.0 243.0
763.0 249.0
763.0 255.0
763.0 261.0
763.0 267.0
763.0 273.0
763.0 279.0
763.0 285.0
763.0 291.0
763.0 297.0
763.0 303.0
763.0 309.0
763.0 315.0
763.0 321.0
763.0 327.0
763.0 333.0
763.0 339.0
763.0 345.0
763.0 351.0
763.0 357.0
763.0 363.0
763.0 369.0
763.0 375.0
763.0 381.0
763.0 387.0
763.0 393.0
841.0 76.0
841.0 131.0
841.0 184.0
841.0 237.0
841.0 291.0
842.0 71.0
842.0 116.0
842.0 165.0
842.0 212.0
842.0 256.0
842.0 303.0
842.0 340.0
842.0 394.0
843.0 67.0
843.0 111.0
843.0 153.0
843.0 196.0
843.0 237.0
843.0 279.0
843.0 317.0
843.0 376.0
852.0 70.0
852.0 113.0
852.0 155.0
852.0 198.0
852.0 239.0
852.0 281.0
852.0 320.0
852.0 365.0
857.0 70.0
857.0 111.0
857.0 152.0
857.0 191.0
857.0 230.0
857.0 271.0
857.0 308.0
857.0 338.0
857.0 377.0
860.0 65.0
860.0 99.0
860.0 133.0
860.0 165.0
860.0 197.0
860.0 230.0
860.0 262.0
860.0 296.0
860.0 331.0
860.0 374.0
861.0 69.0
861.0 110.0
861.0 153.0
861.0 195.0
861.0 237.0
861.0 281.0
861.0 326.0
866.0 40.0
866.0 63.0
866.0 84.0
866.0 105.0
866.0 126.0
866.0 147.0
866.0 167.0
866.0 189.0
866.0 210.0
866.0 231.0
866.0 254.0
866.0 275.0
866.0 296.0
866.0 316.0
866.0 335.0
866.0 357.0
866.0 378.0
866.0 399.0
880.0 334.0
880.0 388.0
941.0 71.0
941.0 119.0
941.0 172.0
941.0 220.0
941.0 268.0
941.0 315.0
941.0 364.0
949.0 65.0
949.0 105.0
949.0 141.0
949.0 177.0
949.0 216.0
949.0 252.0
949.0 288.0
949.0 321.0
949.0 356.0
949.0 395.0
950.0 75.0
950.0 124.0
950.0 172.0
950.0 219.0
950.0 267.0
950.0 314.0
950.0 360.0
959.0 70.0
959.0 113.0
959.0 154.0
959.0 197.0
959.0 242.0
959.0 285.0
959.0 323.0
959.0 369.0
973.0 68.0
973.0 110.0
973.0 152.0
973.0 194.0
973.0 235.0
973.0 277.0
973.0 316.0
973.0 362.0
991.0 70.0
991.0 113.0
991.0 155.0
991.0 197.0
991.0 237.0
991.0 278.0
991.0 318.0
991.0 362.0
1001.0 376.0
1012.0 338.0
1012.0 390.0
1016.0 381.0
1038.0 355.0
1068.0 72.0
1068.0 117.0
1068.0 160.0
1068.0 203.0
1068.0 247.0
1068.0 292.0
1068.0 329.0
1068.0 375.0
1075.0 75.0
1075.0 124.0
1075.0 172.0
1075.0 220.0
1075.0 268.0
1075.0 313.0
1075.0 355.0
1087.0 75.0
1087.0 119.0
1087.0 164.0
1087.0 208.0
1087.0 251.0
1087.0 296.0
1087.0 333.0
1087.0 381.0
1088.0 76.0
1088.0 128.0
1088.0 179.0
1088.0 231.0
1088.0 284.0
1088.0 328.0
1088.0 382.0
1105.0 67.0
1105.0 105.0
1105.0 142.0
1105.0 178.0
1105.0 213.0
1105.0 249.0
1105.0 287.0
1105.0 322.0
1105.0 357.0
1105.0 394.0
1114.0 67.0
1114.0 108.0
1114.0 145.0
1114.0 181.0
1114.0 217.0
1114.0 254.0
1114.0 293.0
1114.0 327.0
1114.0 371.0
1118.0 69.0
1118.0 113.0
1118.0 157.0
1118.0 201.0
1118.0 246.0
1118.0 290.0
1118.0 327.0
1118.0 376.0
1135.0 79.0
1135.0 132.0
1135.0 187.0
1135.0 240.0
1135.0 295.0
1135.0 338.0
1135.0 392.0
1156.0 354.0
1165.0 349.0
1172.0 344.0
1172.0 397.0
1204.0 74.0
1204.0 117.0
1204.0 161.0
1204.0 206.0
1204.0 249.0
1204.0 294.0
1204.0 330.0
1204.0 377.0
1222.0 71.0
1222.0 114.0
1222.0 155.0
1222.0 195.0
1222.0 238.0
1222.0 279.0
1222.0 318.0
1222.0 358.0
1222.0 397.0
1226.0 68.0
1226.0 109.0
1226.0 149.0
1226.0 188.0
1226.0 225.0
1226.0 261.0
1226.0 297.0
1226.0 331.0
1226.0 370.0
1251.0 346.0
1251.0 394.0
1253.0 380.0
1254.0 72.0
1254.0 118.0
1254.0 162.0
1254.0 206.0
1254.0 248.0
1254.0 291.0
1254.0 328.0
1254.0 372.0
1337.0 72.0
1337.0 115.0
1337.0 158.0
1337.0 199.0
1337.0 242.0
1337.0 283.0
1337.0 322.0
1337.0 363.0
1340.0 73.0
1340.0 118.0
1340.0 162.0
1340.0 205.0
1340.0 249.0
1340.0 294.0
1340.0 331.0
1340.0 376.0
1345.0 73.0
1345.0 118.0
1345.0 162.0
1345.0 204.0
1345.0 246.0
1345.0 288.0
1345.0 326.0
1345.0 373.0
1390.0 376.0
1404.0 377.0
1417.0 80.0
1417.0 134.0
1417.0 188.0
1417.0 242.0
1417.0 296.0
1417.0 338.0
1417.0 392.0
1418.0 74.0
1418.0 122.0
1418.0 170.0
1418.0 218.0
1418.0 266.0
1418.0 312.0
1418.0 352.0
1423.0 74.0
1423.0 122.0
1423.0 170.0
1423.0 216.0
1423.0 262.0
1423.0 307.0
1423.0 343.0
1423.0 391.0
1442.0 9.0
1442.0 15.0
1442.0 21.0
1442.0 27.0
1442.0 33.0
1442.0 39.0
1442.0 45.0
1442.0 51.0
1442.0 57.0
1442.0 63.0
1442.0 69.0
1442.0 75.0
1442.0 81.0
1442.0 87.0
1442.0 93.0
1442.0 99.0
1442.0 105.0
1442.0 111.0
1442.0 117.0
1442.0 123.0
1442.0 129.0
1442.0 135.0
1442.0 141.0
1442.0 147.0
1442.0 153.0
1442.0 159.0
1442.0 165.0
1442.0 171.0
1442.0 177.0
1442.0 183.0
1442.0 189.0
1442.0 195.0
1442.0 201.0
1442.0 207.0
1442.0 213.0
1442.0 219.0
1442.0 225.0
1442.0 231.0
1442.0 237.0
1442.0 243.0
1442.0 249.0
1442.0 255.0
1442.0 261.0
1442.0 267.0
1442.0 273.0
1442.0 279.0
1442.0 285.0
1442.0 291.0
1442.0 297.0
1442.0 303.0
1442.0 308.0
1442.0 313.0
1442.0 318.0
1442.0 323.0
1442.0 328.0
1442.0 333.0
1442.0 338.0
1442.0 343.0
1442.0 348.0
1442.0 353.0
1442.0 358.0
1442.0 363.0
1442.0 368.0
1442.0 372.0
1442.0 376.0
1442.0 380.0
1442.0 384.0
1442.0 388.0
1442.0 392.0
1442.0 400.0
