347.0 43.0
347.0 71.0
347.0 99.0
347.0 127.0
347.0 155.0
347.0 183.0
347.0 211.0
347.0 239.0
347.0 267.0
347.0 293.0
347.0 317.0
347.0 339.0
347.0 360.0
347.0 382.0
456.0 45.0
456.0 74.0
456.0 102.0
456.0 130.0
456.0 158.0
456.0 187.0
456.0 217.0
456.0 245.0
456.0 273.0
456.0 299.0
456.0 323.0
456.0 345.0
456.0 367.0
456.0 389.0
591.0 42.0
591.0 68.0
591.0 93.0
591.0 118.0
591.0 144.0
591.0 170.0
591.0 194.0
591.0 221.0
591.0 246.0
591.0 271.0
591.0 295.0
591.0 317.0
591.0 336.0
591.0 356.0
591.0 375.0
591.0 394.0
599.0 44.0
599.0 71.0
599.0 98.0
599.0 125.0
599.0 155.0
599.0 182.0
599.0 211.0
599.0 239.0
599.0 266.0
599.0 291.0
599.0 315.0
599.0 336.0
599.0 357.0
599.0 378.0
599.0 398.0
671.0 335.0
677.0 364.0
679.0 363.0
680.0 7.0
680.0 12.0
680.0 16.0
680.0 20.0
680.0 24.0
680.0 28.0
680.0 32.0
680.0 36.0
680.0 40.0
680.0 44.0
680.0 48.0
680.0 52.0
680.0 56.0
680.0 60.0
680.0 64.0
680.0 68.0
680.0 72.0
680.0 76.0
680.0 80.0
680.0 84.0
680.0 88.0
680.0 92.0
680.0 96.0
680.0 100.0
680.0 104.0
680.0 108.0
680.0 112.0
680.0 116.0
680.0 120.0
680.0 124.0
680.0 128.0
680.0 132.0
680.0 136.0
680.0 140.0
680.0 144.0
680.0 148.0
680.0 152.0
680.0 156.0
680.0 160.0
680.0 164.0
680.0 168.0
680.0 172.0
680.0 176.0
680.0 180.0
680.0 184.0
680.0 188.0
680.0 192.0
680.0 196.0
680.0 200.0
680.0 204.0
680.0 208.0
680.0 212.0
680.0 216.0
680.0 220.0
680.0 224.0
680.0 228.0
680.0 232.0
680.0 236.0
680.0 240.0
680.0 244.0
680.0 248.0
680.0 252.0
680.0 256.0
680.0 260.0
680.0 264.0
680.0 267.0
680.0 271.0
680.0 275.0
680.0 278.0
680.0 282.0
680.0 286.0
680.0 290.0
680.0 293.0
680.0 297.0
680.0 300.0
680.0 304.0
680.0 307.0
680.0 310.0
680.0 313.0
680.0 316.0
680.0 319.0
680.0 322.0
680.0 325.0
680.0 328.0
680.0 331.0
680.0 334.0
680.0 337.0
680.0 340.0
680.0 343.0
680.0 346.0
680.0 349.0
680.0 352.0
680.0 355.0
680.0 358.0
680.0 361.0
680.0 365.0
680.0 368.0
680.0 371.0
680.0 374.0
680.0 377.0
680.0 381.0
680.0 384.0
680.0 387.0
680.0 390.0
680.0 393.0
680.0 397.0
714.0 45.0
714.0 72.0
714.0 103.0
714.0 142.0
714.0 183.0
714.0 225.0
714.0 259.0
714.0 284.0
714.0 307.0
714.0 328.0
714.0 349.0
714.0 370.0
714.0 390.0
725.0 45.0
725.0 70.0
725.0 98.0
725.0 130.0
725.0 169.0
725.0 207.0
725.0 242.0
725.0 271.0
725.0 297.0
725.0 322.0
725.0 348.0
725.0 372.0
725.0 395.0
735.0 43.0
735.0 69.0
735.0 99.0
735.0 135.0
735.0 172.0
735.0 207.0
735.0 243.0
735.0 274.0
735.0 300.0
735.0 326.0
735.0 351.0
735.0 374.0
735.0 397.0
736.0 42.0
736.0 70.0
736.0 98.0
736.0 126.0
736.0 154.0
736.0 182.0
736.0 210.0
736.0 238.0
736.0 266.0
736.0 292.0
736.0 316.0
736.0 337.0
736.0 358.0
736.0 380.0
736.0 400.0
738.0 46.0
738.0 75.0
738.0 112.0
738.0 155.0
738.0 202.0
738.0 242.0
738.0 274.0
738.0 300.0
738.0 323.0
738.0 345.0
738.0 367.0
738.0 389.0
763.0 6.0
763.0 11.0
763.0 14.0
763.0 19.0
763.0 22.0
763.0 27.0
763.0 30.0
763.0 35.0
763.0 39.0
763.0 43.0
763.0 47.0
763.0 51.0
763.0 55.0
763.0 59.0
763.0 63.0
763.0 67.0
763.0 71.0
763.0 75.0
763.0 79.0
763.0 83.0
763.0 87.0
763.0 91.0
763.0 95.0
763.0 99.0
763.0 103.0
763.0 107.0
763.0 111.0
763.0 115.0
763.0 119.0
763.0 123.0
763.0 127.0
763.0 131.0
763.0 135.0
763.0 139.0
763.0 143.0
763.0 147.0
763.0 151.0
763.0 155.0
763.0 159.0
763.0 163.0
763.0 167.0
763.0 171.0
763.0 175.0
763.0 179.0
763.0 183.0
763.0 187.0
763.0 191.0
763.0 195.0
763.0 199.0
763.0 203.0
763.0 207.0
763.0 211.0
763.0 215.0
763.0 219.0
763.0 223.0
763.0 227.0
763.0 231.0
763.0 235.0
763.0 239.0
763.0 243.0
763.0 247.0
763.0 251.0
763.0 255.0
763.0 259.0
763.0 263.0
763.0 267.0
763.0 271.0
763.0 275.0
763.0 279.0
763.0 283.0
763.0 287.0
763.0 291.0
763.0 295.0
763.0 299.0
763.0 303.0
763.0 307.0
763.0 311.0
763.0 315.0
763.0 319.0
763.0 323.0
763.0 327.0
763.0 331.0
763.0 335.0
763.0 339.0
763.0 343.0
763.0 347.0
763.0 351.0
763.0 355.0
763.0 359.0
763.0 362.0
763.0 366.0
763.0 370.0
763.0 374.0
763.0 378.0
763.0 381.0
763.0 385.0
763.0 389.0
763.0 392.0
763.0 396.0
801.0 357.0
827.0 336.0
841.0 45.0
841.0 77.0
841.0 108.0
841.0 139.0
841.0 170.0
841.0 201.0
841.0 231.0
841.0 263.0
841.0 293.0
841.0 319.0
841.0 345.0
841.0 369.0
841.0 393.0
842.0 44.0
842.0 76.0
842.0 117.0
842.0 171.0
842.0 227.0
842.0 268.0
842.0 297.0
842.0 322.0
842.0 346.0
842.0 371.0
842.0 395.0
843.0 44.0
843.0 73.0
843.0 103.0
843.0 133.0
843.0 162.0
843.0 192.0
843.0 221.0
843.0 250.0
843.0 278.0
843.0 304.0
843.0 326.0
843.0 348.0
843.0 371.0
843.0 393.0
852.0 44.0
852.0 72.0
852.0 104.0
852.0 143.0
852.0 184.0
852.0 225.0
852.0 257.0
852.0 283.0
852.0 307.0
852.0 328.0
852.0 349.0
852.0 370.0
852.0 390.0
857.0 44.0
857.0 69.0
857.0 98.0
857.0 130.0
857.0 170.0
857.0 210.0
857.0 243.0
857.0 271.0
857.0 294.0
857.0 316.0
857.0 335.0
857.0 354.0
857.0 374.0
857.0 393.0
860.0 41.0
860.0 66.0
860.0 91.0
860.0 115.0
860.0 141.0
860.0 165.0
860.0 191.0
860.0 216.0
860.0 241.0
860.0 266.0
860.0 289.0
860.0 311.0
860.0 330.0
860.0 349.0
860.0 367.0
860.0 386.0
861.0 44.0
861.0 74.0
861.0 103.0
861.0 133.0
861.0 163.0
861.0 192.0
861.0 221.0
861.0 251.0
861.0 280.0
861.0 307.0
861.0 330.0
861.0 352.0
861.0 375.0
861.0 397.0
866.0 29.0
866.0 45.0
866.0 60.0
866.0 75.0
866.0 90.0
866.0 106.0
866.0 122.0
866.0 140.0
866.0 158.0
866.0 176.0
866.0 193.0
866.0 211.0
866.0 228.0
866.0 245.0
866.0 261.0
866.0 276.0
866.0 290.0
866.0 304.0
866.0 317.0
866.0 330.0
866.0 343.0
866.0 356.0
866.0 369.0
866.0 381.0
866.0 393.0
880.0 45.0
880.0 73.0
880.0 107.0
880.0 149.0
880.0 193.0
880.0 236.0
880.0 270.0
880.0 298.0
880.0 326.0
880.0 353.0
880.0 377.0
880.0 400.0
941.0 44.0
941.0 75.0
941.0 113.0
941.0 160.0
941.0 207.0
941.0 248.0
941.0 280.0
941.0 307.0
941.0 330.0
941.0 353.0
941.0 376.0
941.0 399.0
949.0 44.0
949.0 71.0
949.0 104.0
949.0 144.0
949.0 184.0
949.0 225.0
949.0 257.0
949.0 283.0
949.0 307.0
949.0 327.0
949.0 347.0
949.0 367.0
949.0 387.0
950.0 43.0
950.0 72.0
950.0 107.0
950.0 152.0
950.0 196.0
950.0 240.0
950.0 273.0
950.0 300.0
950.0 323.0
950.0 345.0
950.0 367.0
950.0 389.0
959.0 44.0
959.0 73.0
959.0 111.0
959.0 161.0
959.0 213.0
959.0 255.0
959.0 285.0
959.0 312.0
959.0 335.0
959.0 357.0
959.0 379.0
973.0 42.0
973.0 68.0
973.0 100.0
973.0 139.0
973.0 180.0
973.0 220.0
973.0 254.0
973.0 280.0
973.0 304.0
973.0 326.0
973.0 347.0
973.0 368.0
973.0 388.0
991.0 43.0
991.0 69.0
991.0 101.0
991.0 139.0
991.0 177.0
991.0 217.0
991.0 253.0
991.0 280.0
991.0 304.0
991.0 325.0
991.0 345.0
991.0 365.0
991.0 384.0
1001.0 43.0
1001.0 72.0
1001.0 107.0
1001.0 148.0
1001.0 192.0
1001.0 234.0
1001.0 268.0
1001.0 296.0
1001.0 325.0
1001.0 352.0
1001.0 378.0
1012.0 42.0
1012.0 70.0
1012.0 105.0
1012.0 146.0
1012.0 190.0
1012.0 234.0
1012.0 268.0
1012.0 296.0
1012.0 323.0
1012.0 350.0
1012.0 375.0
1012.0 399.0
1016.0 45.0
1016.0 76.0
1016.0 117.0
1016.0 170.0
1016.0 225.0
1016.0 266.0
1016.0 297.0
1016.0 329.0
1016.0 361.0
1016.0 388.0
1038.0 42.0
1038.0 69.0
1038.0 102.0
1038.0 142.0
1038.0 183.0
1038.0 222.0
1038.0 256.0
1038.0 283.0
1038.0 310.0
1038.0 336.0
1038.0 362.0
1038.0 385.0
1068.0 43.0
1068.0 71.0
1068.0 107.0
1068.0 153.0
1068.0 199.0
1068.0 241.0
1068.0 274.0
1068.0 300.0
1068.0 322.0
1068.0 343.0
1068.0 364.0
1068.0 385.0
1075.0 44.0
1075.0 73.0
1075.0 109.0
1075.0 156.0
1075.0 204.0
1075.0 246.0
1075.0 278.0
1075.0 305.0
1075.0 328.0
1075.0 351.0
1075.0 373.0
1075.0 396.0
1084.0 357.0
1087.0 45.0
1087.0 75.0
1087.0 111.0
1087.0 159.0
1087.0 207.0
1087.0 248.0
1087.0 279.0
1087.0 305.0
1087.0 328.0
1087.0 351.0
1087.0 374.0
1087.0 396.0
1088.0 44.0
1088.0 74.0
1088.0 111.0
1088.0 159.0
1088.0 208.0
1088.0 251.0
1088.0 281.0
1088.0 308.0
1088.0 331.0
1088.0 353.0
1088.0 376.0
1088.0 398.0
1105.0 41.0
1105.0 65.0
1105.0 90.0
1105.0 121.0
1105.0 157.0
1105.0 193.0
1105.0 229.0
1105.0 259.0
1105.0 283.0
1105.0 305.0
1105.0 325.0
1105.0 344.0
1105.0 363.0
1105.0 382.0
1114.0 43.0
1114.0 70.0
1114.0 105.0
1114.0 146.0
1114.0 193.0
1114.0 233.0
1114.0 266.0
1114.0 291.0
1114.0 315.0
1114.0 336.0
1114.0 357.0
1114.0 378.0
1114.0 398.0
1118.0 44.0
1118.0 74.0
1118.0 113.0
1118.0 158.0
1118.0 205.0
1118.0 246.0
1118.0 278.0
1118.0 305.0
1118.0 328.0
1118.0 351.0
1118.0 373.0
1118.0 395.0
1135.0 46.0
1135.0 78.0
1135.0 120.0
1135.0 171.0
1135.0 223.0
1135.0 263.0
1135.0 292.0
1135.0 319.0
1135.0 343.0
1135.0 366.0
1135.0 390.0
1156.0 42.0
1156.0 71.0
1156.0 106.0
1156.0 147.0
1156.0 190.0
1156.0 232.0
1156.0 267.0
1156.0 295.0
1156.0 323.0
1156.0 350.0
1156.0 375.0
1156.0 399.0
1165.0 43.0
1165.0 72.0
1165.0 107.0
1165.0 152.0
1165.0 195.0
1165.0 236.0
1165.0 270.0
1165.0 298.0
1165.0 326.0
1165.0 354.0
1165.0 381.0
1172.0 41.0
1172.0 68.0
1172.0 101.0
1172.0 140.0
1172.0 183.0
1172.0 227.0
1172.0 263.0
1172.0 291.0
1172.0 319.0
1172.0 347.0
1172.0 372.0
1172.0 396.0
1204.0 45.0
1204.0 74.0
1204.0 111.0
1204.0 158.0
1204.0 206.0
1204.0 246.0
1204.0 277.0
1204.0 305.0
1204.0 328.0
1204.0 350.0
1204.0 372.0
1204.0 395.0
1222.0 44.0
1222.0 71.0
1222.0 106.0
1222.0 147.0
1222.0 190.0
1222.0 231.0
1222.0 266.0
1222.0 292.0
1222.0 316.0
1222.0 337.0
1222.0 358.0
1222.0 379.0
1222.0 399.0
1226.0 43.0
1226.0 69.0
1226.0 100.0
1226.0 139.0
1226.0 181.0
1226.0 224.0
1226.0 260.0
1226.0 286.0
1226.0 310.0
1226.0 331.0
1226.0 352.0
1226.0 373.0
1226.0 394.0
1251.0 42.0
1251.0 69.0
1251.0 103.0
1251.0 143.0
1251.0 185.0
1251.0 227.0
1251.0 262.0
1251.0 290.0
1251.0 317.0
1251.0 343.0
1251.0 368.0
1251.0 392.0
1253.0 43.0
1253.0 74.0
1253.0 114.0
1253.0 164.0
1253.0 213.0
1253.0 254.0
1253.0 287.0
1253.0 317.0
1253.0 348.0
1253.0 376.0
1254.0 43.0
1254.0 71.0
1254.0 107.0
1254.0 150.0
1254.0 194.0
1254.0 238.0
1254.0 271.0
1254.0 298.0
1254.0 322.0
1254.0 344.0
1254.0 366.0
1254.0 388.0
1337.0 42.0
1337.0 70.0
1337.0 105.0
1337.0 147.0
1337.0 192.0
1337.0 234.0
1337.0 268.0
1337.0 294.0
1337.0 318.0
1337.0 339.0
1337.0 360.0
1337.0 381.0
1340.0 42.0
1340.0 70.0
1340.0 105.0
1340.0 146.0
1340.0 189.0
1340.0 231.0
1340.0 265.0
1340.0 291.0
1340.0 315.0
1340.0 336.0
1340.0 357.0
1340.0 378.0
1340.0 398.0
1345.0 42.0
1345.0 70.0
1345.0 106.0
1345.0 150.0
1345.0 194.0
1345.0 235.0
1345.0 270.0
1345.0 296.0
1345.0 319.0
1345.0 340.0
1345.0 361.0
1345.0 382.0
1390.0 42.0
1390.0 70.0
1390.0 104.0
1390.0 145.0
1390.0 186.0
1390.0 228.0
1390.0 262.0
1390.0 290.0
1390.0 317.0
1390.0 344.0
1390.0 370.0
1390.0 394.0
1404.0 45.0
1404.0 74.0
1404.0 111.0
1404.0 154.0
1404.0 200.0
1404.0 241.0
1404.0 274.0
1404.0 302.0
1404.0 330.0
1404.0 358.0
1404.0 384.0
1417.0 46.0
1417.0 78.0
1417.0 122.0
1417.0 176.0
1417.0 230.0
1417.0 270.0
1417.0 300.0
1417.0 325.0
1417.0 349.0
1417.0 372.0
1417.0 396.0
1418.0 43.0
1418.0 72.0
1418.0 110.0
1418.0 155.0
1418.0 200.0
1418.0 242.0
1418.0 274.0
1418.0 301.0
1418.0 325.0
1418.0 347.0
1418.0 369.0
1418.0 391.0
1423.0 43.0
1423.0 71.0
1423.0 106.0
1423.0 150.0
1423.0 194.0
1423.0 238.0
1423.0 271.0
1423.0 297.0
1423.0 320.0
1423.0 341.0
1423.0 362.0
1423.0 383.0
1442.0 6.0
1442.0 11.0
1442.0 14.0
1442.0 19.0
1442.0 23.0
1442.0 27.0
1442.0 31.0
1442.0 35.0
1442.0 39.0
1442.0 43.0
1442.0 47.0
1442.0 51.0
1442.0 55.0
1442.0 59.0
1442.0 63.0
1442.0 67.0
1442.0 71.0
1442.0 75.0
1442.0 80.0
1442.0 85.0
1442.0 91.0
1442.0 96.0
1442.0 101.0
1442.0 106.0
1442.0 111.0
1442.0 117.0
1442.0 123.0
1442.0 129.0
1442.0 135.0
1442.0 141.0
1442.0 147.0
1442.0 153.0
1442.0 159.0
1442.0 165.0
1442.0 171.0
1442.0 177.0
1442.0 183.0
1442.0 189.0
1442.0 195.0
1442.0 201.0
1442.0 207.0
1442.0 213.0
1442.0 219.0
1442.0 225.0
1442.0 230.0
1442.0 235.0
1442.0 240.0
1442.0 245.0
1442.0 250.0
1442.0 255.0
1442.0 260.0
1442.0 264.0
1442.0 268.0
1442.0 272.0
1442.0 276.0
1442.0 280.0
1442.0 284.0
1442.0 288.0
1442.0 292.0
1442.0 296.0
1442.0 300.0
1442.0 304.0
1442.0 308.0
1442.0 312.0
1442.0 316.0
1442.0 320.0
1442.0 324.0
1442.0 328.0
1442.0 332.0
1442.0 336.0
1442.0 340.0
1442.0 344.0
1442.0 348.0
1442.0 352.0
1442.0 356.0
1442.0 360.0
1442.0 364.0
1442.0 367.0
1442.0 371.0
1442.0 375.0
1442.0 378.0
1442.0 382.0
1442.0 386.0
1442.0 390.0
1442.0 393.0
1442.0 397.0
