8.0 195.0
14.0 51.0
14.0 80.0
14.0 109.0
14.0 139.0
14.0 166.0
14.0 193.0
14.0 225.0
14.0 261.0
14.0 298.0
14.0 337.0
14.0 369.0
14.0 397.0
26.0 9.0
26.0 15.0
26.0 21.0
26.0 27.0
26.0 33.0
26.0 38.0
26.0 43.0
26.0 48.0
26.0 53.0
26.0 58.0
26.0 62.0
26.0 66.0
26.0 70.0
26.0 74.0
26.0 78.0
26.0 82.0
26.0 86.0
26.0 90.0
26.0 94.0
26.0 98.0
26.0 102.0
26.0 106.0
26.0 110.0
26.0 114.0
26.0 117.0
26.0 121.0
26.0 124.0
26.0 128.0
26.0 131.0
26.0 134.0
26.0 137.0
26.0 140.0
26.0 143.0
26.0 146.0
26.0 149.0
26.0 152.0
26.0 155.0
26.0 158.0
26.0 161.0
26.0 164.0
26.0 167.0
26.0 170.0
26.0 173.0
26.0 176.0
26.0 179.0
26.0 182.0
26.0 185.0
26.0 188.0
26.0 191.0
26.0 194.0
26.0 197.0
26.0 201.0
26.0 204.0
26.0 207.0
26.0 210.0
26.0 213.0
26.0 217.0
26.0 220.0
26.0 223.0
26.0 226.0
26.0 229.0
26.0 233.0
26.0 236.0
26.0 239.0
26.0 242.0
26.0 245.0
26.0 249.0
26.0 252.0
26.0 255.0
26.0 258.0
26.0 261.0
26.0 265.0
26.0 268.0
26.0 271.0
26.0 274.0
26.0 277.0
26.0 281.0
26.0 284.0
26.0 287.0
26.0 290.0
26.0 293.0
26.0 297.0
26.0 300.0
26.0 303.0
26.0 306.0
26.0 309.0
26.0 313.0
26.0 316.0
26.0 319.0
26.0 322.0
26.0 325.0
26.0 329.0
26.0 332.0
26.0 335.0
26.0 338.0
26.0 341.0
26.0 345.0
26.0 348.0
26.0 351.0
26.0 354.0
26.0 357.0
26.0 361.0
26.0 364.0
26.0 367.0
26.0 370.0
26.0 373.0
26.0 376.0
26.0 379.0
26.0 382.0
26.0 385.0
26.0 388.0
26.0 391.0
26.0 394.0
26.0 397.0
30.0 194.0
62.0 53.0
62.0 83.0
62.0 112.0
62.0 142.0
62.0 171.0
62.0 200.0
62.0 233.0
62.0 273.0
62.0 312.0
62.0 350.0
62.0 381.0
85.0 169.0
87.0 52.0
87.0 81.0
87.0 112.0
87.0 142.0
87.0 172.0
87.0 201.0
87.0 235.0
87.0 274.0
87.0 315.0
87.0 353.0
87.0 384.0
96.0 181.0
112.0 45.0
112.0 68.0
112.0 92.0
112.0 118.0
112.0 140.0
112.0 160.0
112.0 180.0
112.0 203.0
112.0 231.0
112.0 259.0
112.0 288.0
112.0 318.0
112.0 347.0
112.0 376.0
122.0 185.0
129.0 47.0
129.0 72.0
129.0 98.0
129.0 125.0
129.0 147.0
129.0 168.0
129.0 189.0
129.0 216.0
129.0 245.0
129.0 275.0
129.0 305.0
129.0 335.0
129.0 365.0
129.0 393.0
157.0 55.0
157.0 84.0
157.0 113.0
157.0 146.0
157.0 174.0
157.0 203.0
157.0 235.0
157.0 274.0
157.0 313.0
157.0 351.0
157.0 381.0
159.0 54.0
159.0 84.0
159.0 113.0
159.0 145.0
159.0 173.0
159.0 201.0
159.0 233.0
159.0 272.0
159.0 311.0
159.0 349.0
159.0 379.0
165.0 60.0
165.0 95.0
165.0 134.0
165.0 167.0
165.0 200.0
165.0 242.0
165.0 290.0
165.0 337.0
165.0 375.0
166.0 53.0
166.0 83.0
166.0 112.0
166.0 143.0
166.0 171.0
166.0 200.0
166.0 232.0
166.0 273.0
166.0 312.0
166.0 350.0
166.0 381.0
167.0 56.0
167.0 87.0
167.0 119.0
167.0 151.0
167.0 178.0
167.0 206.0
167.0 241.0
167.0 280.0
167.0 320.0
167.0 356.0
167.0 386.0
185.0 51.0
185.0 79.0
185.0 105.0
185.0 134.0
185.0 161.0
185.0 188.0
185.0 217.0
185.0 252.0
185.0 288.0
185.0 323.0
185.0 357.0
185.0 386.0
204.0 178.0
206.0 171.0
206.0 400.0
217.0 44.0
217.0 68.0
217.0 93.0
217.0 120.0
217.0 143.0
217.0 164.0
217.0 186.0
217.0 214.0
217.0 244.0
217.0 275.0
217.0 306.0
217.0 338.0
217.0 370.0
217.0 399.0
221.0 194.0
224.0 45.0
224.0 67.0
224.0 90.0
224.0 114.0
224.0 137.0
224.0 157.0
224.0 177.0
224.0 199.0
224.0 227.0
224.0 256.0
224.0 286.0
224.0 316.0
224.0 343.0
224.0 371.0
224.0 396.0
227.0 45.0
227.0 71.0
227.0 97.0
227.0 125.0
227.0 149.0
227.0 171.0
227.0 194.0
227.0 226.0
227.0 259.0
227.0 292.0
227.0 325.0
227.0 358.0
227.0 388.0
231.0 177.0
231.0 398.0
232.0 45.0
232.0 66.0
232.0 89.0
232.0 113.0
232.0 135.0
232.0 155.0
232.0 175.0
232.0 197.0
232.0 224.0
232.0 252.0
232.0 281.0
232.0 309.0
232.0 337.0
232.0 365.0
232.0 391.0
241.0 45.0
241.0 66.0
241.0 90.0
241.0 114.0
241.0 137.0
241.0 157.0
241.0 177.0
241.0 200.0
241.0 228.0
241.0 257.0
241.0 287.0
241.0 317.0
241.0 346.0
241.0 375.0
258.0 45.0
258.0 71.0
258.0 97.0
258.0 123.0
258.0 146.0
258.0 166.0
258.0 188.0
258.0 216.0
258.0 247.0
258.0 277.0
258.0 308.0
258.0 340.0
258.0 371.0
258.0 400.0
259.0 45.0
259.0 71.0
259.0 98.0
259.0 126.0
259.0 149.0
259.0 171.0
259.0 194.0
259.0 225.0
259.0 257.0
259.0 289.0
259.0 321.0
259.0 353.0
259.0 383.0
286.0 53.0
286.0 82.0
286.0 111.0
286.0 141.0
286.0 168.0
286.0 194.0
286.0 223.0
286.0 261.0
286.0 297.0
286.0 335.0
286.0 367.0
286.0 395.0
296.0 51.0
296.0 77.0
296.0 101.0
296.0 129.0
296.0 154.0
296.0 178.0
296.0 202.0
296.0 231.0
296.0 264.0
296.0 298.0
296.0 334.0
296.0 363.0
296.0 390.0
303.0 49.0
303.0 76.0
303.0 100.0
303.0 129.0
303.0 154.0
303.0 178.0
303.0 203.0
303.0 231.0
303.0 265.0
303.0 299.0
303.0 331.0
303.0 362.0
303.0 388.0
306.0 52.0
306.0 82.0
306.0 112.0
306.0 144.0
306.0 172.0
306.0 200.0
306.0 233.0
306.0 272.0
306.0 311.0
306.0 349.0
306.0 380.0
316.0 191.0
318.0 176.0
318.0 400.0
328.0 44.0
328.0 70.0
328.0 97.0
328.0 124.0
328.0 146.0
328.0 168.0
328.0 189.0
328.0 218.0
328.0 248.0
328.0 280.0
328.0 311.0
328.0 343.0
328.0 374.0
334.0 45.0
334.0 69.0
334.0 94.0
334.0 121.0
334.0 143.0
334.0 164.0
334.0 184.0
334.0 210.0
334.0 240.0
334.0 271.0
334.0 303.0
334.0 335.0
334.0 367.0
334.0 396.0
347.0 30.0
347.0 45.0
347.0 58.0
347.0 72.0
347.0 85.0
347.0 99.0
347.0 113.0
347.0 128.0
347.0 142.0
347.0 156.0
347.0 170.0
347.0 184.0
347.0 200.0
347.0 217.0
347.0 236.0
347.0 256.0
347.0 275.0
347.0 295.0
347.0 313.0
347.0 333.0
347.0 351.0
347.0 369.0
347.0 387.0
366.0 45.0
366.0 68.0
366.0 91.0
366.0 116.0
366.0 140.0
366.0 160.0
366.0 181.0
366.0 207.0
366.0 237.0
366.0 267.0
366.0 297.0
366.0 327.0
366.0 358.0
366.0 387.0
382.0 47.0
382.0 75.0
382.0 103.0
382.0 130.0
382.0 153.0
382.0 176.0
382.0 202.0
382.0 234.0
382.0 267.0
382.0 299.0
382.0 331.0
382.0 363.0
382.0 393.0
428.0 50.0
428.0 80.0
428.0 109.0
428.0 141.0
428.0 169.0
428.0 198.0
428.0 233.0
428.0 277.0
428.0 319.0
428.0 357.0
428.0 389.0
434.0 53.0
434.0 84.0
434.0 116.0
434.0 148.0
434.0 178.0
434.0 208.0
434.0 247.0
434.0 289.0
434.0 330.0
434.0 366.0
434.0 397.0
435.0 53.0
435.0 82.0
435.0 111.0
435.0 142.0
435.0 170.0
435.0 199.0
435.0 231.0
435.0 266.0
435.0 304.0
435.0 343.0
435.0 374.0
450.0 49.0
450.0 77.0
450.0 103.0
450.0 133.0
450.0 159.0
450.0 184.0
450.0 210.0
450.0 241.0
450.0 278.0
450.0 312.0
450.0 346.0
450.0 375.0
456.0 39.0
456.0 60.0
456.0 84.0
456.0 112.0
456.0 153.0
457.0 183.0
477.0 53.0
477.0 84.0
477.0 114.0
477.0 145.0
477.0 172.0
477.0 198.0
477.0 227.0
477.0 262.0
477.0 298.0
477.0 337.0
477.0 369.0
477.0 397.0
487.0 45.0
487.0 71.0
487.0 97.0
487.0 123.0
487.0 147.0
487.0 168.0
487.0 190.0
487.0 218.0
487.0 248.0
487.0 278.0
487.0 309.0
487.0 339.0
487.0 369.0
487.0 396.0
558.0 53.0
558.0 82.0
558.0 109.0
558.0 141.0
558.0 168.0
558.0 195.0
558.0 226.0
558.0 263.0
558.0 301.0
558.0 338.0
558.0 368.0
558.0 395.0
580.0 54.0
580.0 85.0
580.0 119.0
580.0 151.0
580.0 181.0
580.0 212.0
580.0 250.0
580.0 290.0
580.0 328.0
580.0 362.0
580.0 393.0
591.0 38.0
591.0 58.0
591.0 82.0
591.0 107.0
591.0 141.0
591.0 187.0
595.0 181.0
599.0 30.0
599.0 45.0
599.0 59.0
599.0 74.0
599.0 88.0
599.0 103.0
599.0 119.0
599.0 135.0
599.0 151.0
599.0 166.0
599.0 181.0
599.0 198.0
599.0 216.0
599.0 235.0
599.0 256.0
599.0 277.0
599.0 298.0
599.0 320.0
599.0 341.0
599.0 360.0
599.0 378.0
599.0 396.0
605.0 43.0
605.0 64.0
605.0 87.0
605.0 110.0
605.0 133.0
605.0 153.0
605.0 172.0
605.0 193.0
605.0 220.0
605.0 247.0
605.0 275.0
605.0 304.0
605.0 330.0
605.0 359.0
605.0 385.0
607.0 52.0
607.0 80.0
607.0 106.0
607.0 136.0
607.0 163.0
607.0 190.0
607.0 219.0
607.0 257.0
607.0 297.0
607.0 334.0
607.0 366.0
607.0 394.0
620.0 176.0
623.0 45.0
623.0 72.0
623.0 98.0
623.0 124.0
623.0 147.0
623.0 167.0
623.0 191.0
623.0 220.0
623.0 251.0
623.0 283.0
623.0 314.0
623.0 344.0
623.0 374.0
632.0 44.0
632.0 68.0
632.0 92.0
632.0 116.0
632.0 139.0
632.0 159.0
632.0 179.0
632.0 201.0
632.0 229.0
632.0 259.0
632.0 289.0
632.0 319.0
632.0 347.0
632.0 376.0
680.0 6.0
680.0 10.0
680.0 14.0
680.0 18.0
680.0 22.0
680.0 26.0
680.0 30.0
680.0 34.0
680.0 38.0
680.0 42.0
680.0 46.0
680.0 50.0
680.0 54.0
680.0 58.0
680.0 62.0
680.0 66.0
680.0 70.0
680.0 74.0
680.0 78.0
680.0 82.0
680.0 86.0
680.0 90.0
680.0 94.0
680.0 98.0
680.0 103.0
680.0 107.0
680.0 113.0
680.0 118.0
680.0 123.0
680.0 129.0
680.0 135.0
680.0 141.0
680.0 147.0
680.0 153.0
680.0 159.0
680.0 165.0
680.0 171.0
680.0 177.0
680.0 183.0
680.0 189.0
680.0 195.0
680.0 201.0
680.0 207.0
680.0 213.0
680.0 219.0
680.0 227.0
680.0 235.0
680.0 243.0
680.0 251.0
680.0 259.0
680.0 267.0
680.0 275.0
680.0 283.0
680.0 291.0
680.0 299.0
680.0 307.0
680.0 315.0
680.0 323.0
680.0 331.0
680.0 339.0
680.0 345.0
680.0 351.0
680.0 357.0
680.0 363.0
680.0 369.0
680.0 375.0
680.0 381.0
680.0 387.0
680.0 393.0
696.0 65.0
696.0 104.0
696.0 141.0
696.0 168.0
696.0 195.0
696.0 225.0
696.0 255.0
696.0 285.0
696.0 315.0
696.0 345.0
696.0 376.0
708.0 49.0
708.0 77.0
708.0 106.0
708.0 135.0
708.0 159.0
708.0 183.0
708.0 215.0
708.0 251.0
708.0 287.0
708.0 323.0
708.0 359.0
708.0 392.0
709.0 51.0
709.0 80.0
709.0 108.0
709.0 138.0
709.0 165.0
709.0 189.0
709.0 217.0
709.0 254.0
709.0 293.0
709.0 329.0
709.0 361.0
709.0 390.0
714.0 49.0
714.0 84.0
718.0 50.0
718.0 78.0
718.0 104.0
718.0 134.0
718.0 160.0
718.0 185.0
718.0 213.0
718.0 248.0
718.0 283.0
718.0 319.0
718.0 352.0
718.0 380.0
725.0 44.0
725.0 65.0
725.0 96.0
725.0 131.0
725.0 171.0
733.0 200.0
734.0 60.0
734.0 93.0
734.0 127.0
734.0 154.0
734.0 179.0
734.0 203.0
734.0 232.0
734.0 262.0
734.0 291.0
734.0 321.0
734.0 351.0
734.0 380.0
735.0 41.0
735.0 63.0
735.0 93.0
735.0 129.0
735.0 166.0
736.0 37.0
736.0 57.0
736.0 80.0
736.0 104.0
736.0 135.0
736.0 171.0
738.0 50.0
738.0 88.0
744.0 61.0
744.0 100.0
744.0 135.0
744.0 164.0
744.0 191.0
744.0 221.0
744.0 251.0
744.0 282.0
744.0 313.0
744.0 345.0
744.0 376.0
745.0 45.0
745.0 72.0
745.0 98.0
745.0 124.0
745.0 146.0
745.0 167.0
745.0 190.0
745.0 219.0
745.0 249.0
745.0 280.0
745.0 312.0
745.0 343.0
745.0 374.0
763.0 6.0
763.0 10.0
763.0 14.0
763.0 17.0
763.0 21.0
763.0 24.0
763.0 28.0
763.0 31.0
763.0 34.0
763.0 37.0
763.0 40.0
763.0 43.0
763.0 46.0
763.0 49.0
763.0 52.0
763.0 55.0
763.0 58.0
763.0 62.0
763.0 66.0
763.0 70.0
763.0 73.0
763.0 77.0
763.0 81.0
763.0 84.0
763.0 88.0
763.0 92.0
763.0 96.0
763.0 100.0
763.0 104.0
763.0 108.0
763.0 112.0
763.0 116.0
763.0 120.0
763.0 124.0
763.0 128.0
763.0 132.0
763.0 136.0
763.0 140.0
763.0 144.0
763.0 148.0
763.0 152.0
763.0 156.0
763.0 160.0
763.0 164.0
763.0 168.0
763.0 172.0
763.0 177.0
763.0 181.0
763.0 187.0
763.0 192.0
763.0 197.0
763.0 203.0
763.0 209.0
763.0 215.0
763.0 221.0
763.0 227.0
763.0 233.0
763.0 239.0
763.0 245.0
763.0 251.0
763.0 257.0
763.0 263.0
763.0 269.0
763.0 275.0
763.0 281.0
763.0 287.0
763.0 293.0
763.0 299.0
763.0 305.0
763.0 311.0
763.0 317.0
763.0 323.0
763.0 329.0
763.0 335.0
763.0 341.0
763.0 347.0
763.0 353.0
763.0 359.0
763.0 365.0
763.0 371.0
763.0 377.0
763.0 383.0
763.0 389.0
763.0 395.0
841.0 39.0
841.0 62.0
841.0 89.0
841.0 126.0
841.0 175.0
842.0 53.0
842.0 98.0
843.0 39.0
843.0 58.0
843.0 81.0
843.0 106.0
843.0 142.0
843.0 176.0
852.0 47.0
852.0 82.0
857.0 49.0
857.0 80.0
857.0 129.0
860.0 36.0
860.0 55.0
860.0 77.0
860.0 100.0
860.0 128.0
860.0 164.0
861.0 39.0
861.0 60.0
861.0 84.0
861.0 112.0
861.0 148.0
861.0 195.0
866.0 29.0
866.0 44.0
866.0 57.0
866.0 72.0
866.0 88.0
866.0 105.0
866.0 125.0
866.0 146.0
866.0 167.0
866.0 188.0
866.0 214.0
866.0 245.0
866.0 280.0
866.0 314.0
866.0 347.0
866.0 376.0
880.0 45.0
880.0 68.0
880.0 102.0
880.0 138.0
880.0 174.0
941.0 50.0
941.0 94.0
949.0 50.0
949.0 83.0
950.0 49.0
950.0 94.0
959.0 53.0
959.0 92.0
973.0 47.0
973.0 82.0
991.0 48.0
991.0 84.0
1001.0 43.0
1001.0 71.0
1001.0 116.0
1001.0 164.0
1012.0 42.0
1012.0 67.0
1012.0 104.0
1012.0 145.0
1016.0 46.0
1016.0 76.0
1016.0 119.0
1016.0 166.0
1038.0 41.0
1038.0 65.0
1038.0 100.0
1038.0 143.0
1068.0 50.0
1068.0 89.0
1075.0 50.0
1075.0 90.0
1087.0 51.0
1087.0 89.0
1088.0 50.0
1088.0 94.0
1105.0 47.0
1105.0 75.0
1105.0 112.0
1114.0 48.0
1114.0 84.0
1118.0 52.0
1118.0 91.0
1135.0 53.0
1135.0 104.0
1156.0 42.0
1156.0 69.0
1156.0 109.0
1156.0 151.0
1165.0 41.0
1165.0 66.0
1165.0 104.0
1165.0 147.0
1172.0 42.0
1172.0 67.0
1172.0 105.0
1172.0 148.0
1204.0 51.0
1204.0 92.0
1222.0 50.0
1222.0 86.0
1226.0 47.0
1226.0 79.0
1226.0 123.0
1251.0 43.0
1251.0 67.0
1251.0 103.0
1251.0 143.0
1251.0 187.0
1253.0 43.0
1253.0 72.0
1253.0 121.0
1253.0 169.0
1254.0 49.0
1254.0 90.0
1337.0 48.0
1337.0 88.0
1340.0 48.0
1340.0 87.0
1345.0 51.0
1345.0 93.0
1390.0 43.0
1390.0 68.0
1390.0 108.0
1390.0 151.0
1404.0 44.0
1404.0 72.0
1404.0 115.0
1404.0 159.0
1417.0 53.0
1417.0 104.0
1418.0 52.0
1418.0 97.0
1423.0 49.0
1423.0 93.0
1442.0 7.0
1442.0 13.0
1442.0 18.0
1442.0 23.0
1442.0 28.0
1442.0 33.0
1442.0 38.0
1442.0 43.0
1442.0 48.0
1442.0 53.0
1442.0 58.0
1442.0 63.0
1442.0 69.0
1442.0 75.0
1442.0 81.0
1442.0 87.0
1442.0 93.0
1442.0 99.0
1442.0 105.0
1442.0 111.0
1442.0 117.0
1442.0 123.0
1442.0 129.0
1442.0 135.0
1442.0 141.0
1442.0 147.0
1442.0 153.0
1442.0 159.0
1442.0 165.0
1442.0 171.0
1442.0 177.0
1442.0 183.0
1442.0 189.0
1442.0 195.0
1442.0 201.0
1442.0 207.0
1442.0 213.0
1442.0 219.0
1442.0 225.0
1442.0 231.0
1442.0 237.0
1442.0 243.0
1442.0 249.0
1442.0 255.0
1442.0 261.0
1442.0 267.0
1442.0 273.0
1442.0 279.0
1442.0 285.0
1442.0 291.0
1442.0 297.0
1442.0 303.0
1442.0 309.0
1442.0 315.0
1442.0 321.0
1442.0 327.0
1442.0 333.0
1442.0 339.0
1442.0 345.0
1442.0 351.0
1442.0 357.0
1442.0 363.0
1442.0 369.0
1442.0 375.0
1442.0 381.0
1442.0 387.0
1442.0 393.0
