347.0 40.0
347.0 67.0
347.0 93.0
347.0 120.0
347.0 144.0
347.0 169.0
347.0 195.0
347.0 223.0
347.0 251.0
347.0 279.0
347.0 307.0
347.0 336.0
347.0 363.0
347.0 391.0
456.0 41.0
456.0 68.0
456.0 95.0
456.0 122.0
456.0 146.0
456.0 171.0
456.0 198.0
456.0 225.0
456.0 253.0
456.0 280.0
456.0 308.0
456.0 336.0
456.0 364.0
456.0 391.0
475.0 194.0
591.0 39.0
591.0 63.0
591.0 87.0
591.0 110.0
591.0 133.0
591.0 156.0
591.0 179.0
591.0 204.0
591.0 231.0
591.0 258.0
591.0 284.0
591.0 309.0
591.0 336.0
591.0 361.0
591.0 387.0
599.0 40.0
599.0 67.0
599.0 93.0
599.0 119.0
599.0 142.0
599.0 168.0
599.0 194.0
599.0 223.0
599.0 252.0
599.0 280.0
599.0 307.0
599.0 335.0
599.0 365.0
599.0 392.0
612.0 206.0
612.0 284.0
612.0 392.0
625.0 184.0
625.0 271.0
625.0 370.0
680.0 6.0
680.0 10.0
680.0 14.0
680.0 18.0
680.0 22.0
680.0 26.0
680.0 30.0
680.0 34.0
680.0 38.0
680.0 42.0
680.0 46.0
680.0 50.0
680.0 54.0
680.0 58.0
680.0 62.0
680.0 66.0
680.0 70.0
680.0 74.0
680.0 78.0
680.0 82.0
680.0 86.0
680.0 90.0
680.0 94.0
680.0 98.0
680.0 102.0
680.0 106.0
680.0 110.0
680.0 114.0
680.0 118.0
680.0 122.0
680.0 126.0
680.0 130.0
680.0 135.0
680.0 139.0
680.0 145.0
680.0 150.0
680.0 155.0
680.0 160.0
680.0 165.0
680.0 170.0
680.0 175.0
680.0 181.0
680.0 187.0
680.0 193.0
680.0 199.0
680.0 205.0
680.0 211.0
680.0 217.0
680.0 223.0
680.0 229.0
680.0 235.0
680.0 241.0
680.0 247.0
680.0 253.0
680.0 259.0
680.0 265.0
680.0 271.0
680.0 277.0
680.0 283.0
680.0 289.0
680.0 295.0
680.0 301.0
680.0 307.0
680.0 313.0
680.0 319.0
680.0 325.0
680.0 331.0
680.0 337.0
680.0 343.0
680.0 349.0
680.0 355.0
680.0 361.0
680.0 367.0
680.0 373.0
680.0 379.0
680.0 384.0
680.0 389.0
680.0 394.0
714.0 44.0
714.0 71.0
714.0 97.0
714.0 124.0
714.0 152.0
714.0 185.0
714.0 221.0
714.0 259.0
714.0 296.0
714.0 336.0
714.0 376.0
725.0 42.0
725.0 66.0
725.0 90.0
725.0 114.0
725.0 137.0
725.0 157.0
725.0 177.0
725.0 197.0
725.0 218.0
725.0 237.0
725.0 258.0
725.0 278.0
725.0 298.0
725.0 318.0
725.0 337.0
725.0 358.0
725.0 378.0
725.0 399.0
726.0 228.0
726.0 347.0
735.0 40.0
735.0 65.0
735.0 89.0
735.0 113.0
735.0 136.0
735.0 157.0
735.0 176.0
735.0 197.0
735.0 217.0
735.0 237.0
735.0 257.0
735.0 277.0
735.0 298.0
735.0 317.0
735.0 337.0
735.0 358.0
735.0 377.0
735.0 398.0
736.0 39.0
736.0 65.0
736.0 92.0
736.0 118.0
736.0 141.0
736.0 165.0
736.0 190.0
736.0 218.0
736.0 244.0
736.0 271.0
736.0 300.0
736.0 327.0
736.0 355.0
736.0 384.0
738.0 44.0
738.0 73.0
738.0 102.0
738.0 132.0
738.0 168.0
738.0 212.0
738.0 260.0
738.0 308.0
738.0 356.0
763.0 6.0
763.0 10.0
763.0 14.0
763.0 18.0
763.0 22.0
763.0 25.0
763.0 29.0
763.0 33.0
763.0 36.0
763.0 40.0
763.0 44.0
763.0 48.0
763.0 52.0
763.0 55.0
763.0 59.0
763.0 63.0
763.0 66.0
763.0 70.0
763.0 74.0
763.0 78.0
763.0 82.0
763.0 85.0
763.0 89.0
763.0 93.0
763.0 96.0
763.0 100.0
763.0 104.0
763.0 108.0
763.0 112.0
763.0 115.0
763.0 119.0
763.0 122.0
763.0 126.0
763.0 129.0
763.0 132.0
763.0 135.0
763.0 138.0
763.0 141.0
763.0 144.0
763.0 147.0
763.0 150.0
763.0 153.0
763.0 156.0
763.0 159.0
763.0 162.0
763.0 165.0
763.0 168.0
763.0 171.0
763.0 174.0
763.0 177.0
763.0 180.0
763.0 183.0
763.0 186.0
763.0 189.0
763.0 192.0
763.0 195.0
763.0 198.0
763.0 201.0
763.0 204.0
763.0 207.0
763.0 210.0
763.0 213.0
763.0 216.0
763.0 219.0
763.0 222.0
763.0 225.0
763.0 228.0
763.0 231.0
763.0 234.0
763.0 237.0
763.0 240.0
763.0 243.0
763.0 246.0
763.0 249.0
763.0 252.0
763.0 255.0
763.0 258.0
763.0 261.0
763.0 264.0
763.0 267.0
763.0 270.0
763.0 273.0
763.0 276.0
763.0 279.0
763.0 282.0
763.0 285.0
763.0 288.0
763.0 291.0
763.0 294.0
763.0 297.0
763.0 300.0
763.0 303.0
763.0 306.0
763.0 309.0
763.0 312.0
763.0 315.0
763.0 318.0
763.0 321.0
763.0 324.0
763.0 327.0
763.0 330.0
763.0 333.0
763.0 336.0
763.0 339.0
763.0 342.0
763.0 345.0
763.0 348.0
763.0 351.0
763.0 354.0
763.0 357.0
763.0 360.0
763.0 363.0
763.0 366.0
763.0 369.0
763.0 372.0
763.0 375.0
763.0 378.0
763.0 381.0
763.0 384.0
763.0 387.0
763.0 390.0
763.0 393.0
763.0 396.0
841.0 41.0
841.0 71.0
841.0 101.0
841.0 130.0
841.0 158.0
841.0 186.0
841.0 216.0
841.0 249.0
841.0 279.0
841.0 310.0
841.0 342.0
841.0 373.0
842.0 43.0
842.0 75.0
842.0 107.0
842.0 139.0
842.0 184.0
842.0 239.0
842.0 295.0
842.0 348.0
842.0 397.0
843.0 41.0
843.0 69.0
843.0 96.0
843.0 123.0
843.0 148.0
843.0 174.0
843.0 203.0
843.0 233.0
843.0 262.0
843.0 291.0
843.0 321.0
843.0 352.0
843.0 381.0
852.0 42.0
852.0 69.0
852.0 96.0
852.0 123.0
852.0 152.0
852.0 182.0
852.0 221.0
852.0 259.0
852.0 299.0
852.0 336.0
852.0 377.0
857.0 43.0
857.0 68.0
857.0 92.0
857.0 116.0
857.0 141.0
857.0 171.0
857.0 206.0
857.0 241.0
857.0 276.0
857.0 313.0
857.0 349.0
857.0 385.0
860.0 39.0
860.0 63.0
860.0 87.0
860.0 110.0
860.0 133.0
860.0 155.0
860.0 177.0
860.0 202.0
860.0 229.0
860.0 254.0
860.0 279.0
860.0 304.0
860.0 331.0
860.0 356.0
860.0 381.0
861.0 40.0
861.0 68.0
861.0 96.0
861.0 123.0
861.0 148.0
861.0 175.0
861.0 205.0
861.0 235.0
861.0 265.0
861.0 295.0
861.0 325.0
861.0 355.0
861.0 385.0
866.0 28.0
866.0 43.0
866.0 57.0
866.0 71.0
866.0 85.0
866.0 99.0
866.0 113.0
866.0 127.0
866.0 141.0
866.0 155.0
866.0 169.0
866.0 183.0
866.0 198.0
866.0 212.0
866.0 227.0
866.0 242.0
866.0 257.0
866.0 271.0
866.0 286.0
866.0 301.0
866.0 316.0
866.0 331.0
866.0 345.0
866.0 360.0
866.0 374.0
866.0 389.0
870.0 177.0
870.0 276.0
870.0 393.0
880.0 42.0
880.0 68.0
880.0 93.0
880.0 119.0
880.0 141.0
880.0 162.0
880.0 182.0
880.0 203.0
880.0 224.0
880.0 244.0
880.0 265.0
880.0 285.0
880.0 305.0
880.0 325.0
880.0 345.0
880.0 366.0
880.0 386.0
881.0 264.0
881.0 398.0
889.0 211.0
889.0 315.0
894.0 170.0
894.0 253.0
894.0 316.0
894.0 382.0
941.0 42.0
941.0 73.0
941.0 104.0
941.0 134.0
941.0 173.0
941.0 228.0
941.0 281.0
941.0 334.0
941.0 384.0
949.0 41.0
949.0 68.0
949.0 94.0
949.0 120.0
949.0 148.0
949.0 180.0
949.0 221.0
949.0 263.0
949.0 305.0
949.0 344.0
949.0 383.0
950.0 41.0
950.0 70.0
950.0 99.0
950.0 128.0
950.0 164.0
950.0 209.0
950.0 259.0
950.0 307.0
950.0 355.0
950.0 397.0
959.0 43.0
959.0 73.0
959.0 103.0
959.0 133.0
959.0 171.0
959.0 223.0
959.0 272.0
959.0 324.0
959.0 375.0
973.0 40.0
973.0 66.0
973.0 92.0
973.0 118.0
973.0 146.0
973.0 179.0
973.0 216.0
973.0 255.0
973.0 294.0
973.0 331.0
973.0 370.0
991.0 41.0
991.0 67.0
991.0 94.0
991.0 120.0
991.0 147.0
991.0 180.0
991.0 219.0
991.0 259.0
991.0 298.0
991.0 336.0
991.0 374.0
1001.0 40.0
1001.0 67.0
1001.0 94.0
1001.0 120.0
1001.0 143.0
1001.0 164.0
1001.0 185.0
1001.0 206.0
1001.0 227.0
1001.0 248.0
1001.0 268.0
1001.0 289.0
1001.0 310.0
1001.0 331.0
1001.0 352.0
1001.0 373.0
1001.0 394.0
1012.0 39.0
1012.0 66.0
1012.0 92.0
1012.0 118.0
1012.0 141.0
1012.0 162.0
1012.0 183.0
1012.0 204.0
1012.0 225.0
1012.0 246.0
1012.0 267.0
1012.0 288.0
1012.0 309.0
1012.0 330.0
1012.0 351.0
1012.0 372.0
1012.0 393.0
1014.0 189.0
1014.0 273.0
1014.0 372.0
1016.0 42.0
1016.0 71.0
1016.0 100.0
1016.0 128.0
1016.0 152.0
1016.0 175.0
1016.0 198.0
1016.0 221.0
1016.0 244.0
1016.0 267.0
1016.0 291.0
1016.0 315.0
1016.0 339.0
1016.0 363.0
1016.0 387.0
1018.0 202.0
1018.0 304.0
1018.0 397.0
1022.0 272.0
1031.0 257.0
1031.0 389.0
1038.0 39.0
1038.0 64.0
1038.0 89.0
1038.0 115.0
1038.0 137.0
1038.0 158.0
1038.0 178.0
1038.0 198.0
1038.0 218.0
1038.0 238.0
1038.0 258.0
1038.0 278.0
1038.0 298.0
1038.0 319.0
1038.0 340.0
1038.0 361.0
1038.0 381.0
1068.0 41.0
1068.0 69.0
1068.0 97.0
1068.0 125.0
1068.0 160.0
1068.0 203.0
1068.0 250.0
1068.0 296.0
1068.0 341.0
1068.0 387.0
1075.0 42.0
1075.0 72.0
1075.0 102.0
1075.0 132.0
1075.0 169.0
1075.0 216.0
1075.0 264.0
1075.0 312.0
1075.0 360.0
1087.0 43.0
1087.0 73.0
1087.0 102.0
1087.0 131.0
1087.0 168.0
1087.0 215.0
1087.0 263.0
1087.0 310.0
1087.0 358.0
1087.0 399.0
1088.0 43.0
1088.0 73.0
1088.0 102.0
1088.0 131.0
1088.0 168.0
1088.0 215.0
1088.0 263.0
1088.0 311.0
1088.0 359.0
1105.0 39.0
1105.0 63.0
1105.0 87.0
1105.0 111.0
1105.0 135.0
1105.0 164.0
1105.0 194.0
1105.0 228.0
1105.0 263.0
1105.0 295.0
1105.0 330.0
1105.0 366.0
1105.0 398.0
1114.0 41.0
1114.0 69.0
1114.0 96.0
1114.0 124.0
1114.0 156.0
1114.0 193.0
1114.0 234.0
1114.0 271.0
1114.0 313.0
1114.0 358.0
1114.0 397.0
1118.0 43.0
1118.0 73.0
1118.0 103.0
1118.0 133.0
1118.0 170.0
1118.0 216.0
1118.0 265.0
1118.0 314.0
1118.0 362.0
1134.0 230.0
1134.0 320.0
1135.0 43.0
1135.0 73.0
1135.0 104.0
1135.0 134.0
1135.0 173.0
1135.0 223.0
1135.0 273.0
1135.0 325.0
1135.0 374.0
1148.0 187.0
1148.0 273.0
1156.0 39.0
1156.0 66.0
1156.0 92.0
1156.0 119.0
1156.0 142.0
1156.0 163.0
1156.0 184.0
1156.0 205.0
1156.0 226.0
1156.0 247.0
1156.0 267.0
1156.0 289.0
1156.0 309.0
1156.0 330.0
1156.0 351.0
1156.0 372.0
1156.0 393.0
1165.0 39.0
1165.0 67.0
1165.0 93.0
1165.0 119.0
1165.0 142.0
1165.0 164.0
1165.0 186.0
1165.0 208.0
1165.0 230.0
1165.0 253.0
1165.0 275.0
1165.0 297.0
1165.0 319.0
1165.0 341.0
1165.0 364.0
1165.0 385.0
1172.0 39.0
1172.0 64.0
1172.0 89.0
1172.0 115.0
1172.0 139.0
1172.0 160.0
1172.0 181.0
1172.0 203.0
1172.0 224.0
1172.0 245.0
1172.0 266.0
1172.0 287.0
1172.0 308.0
1172.0 329.0
1172.0 350.0
1172.0 371.0
1172.0 392.0
1204.0 43.0
1204.0 72.0
1204.0 100.0
1204.0 128.0
1204.0 165.0
1204.0 211.0
1204.0 259.0
1204.0 307.0
1204.0 355.0
1204.0 399.0
1222.0 43.0
1222.0 71.0
1222.0 98.0
1222.0 126.0
1222.0 158.0
1222.0 195.0
1222.0 236.0
1222.0 278.0
1222.0 320.0
1222.0 363.0
1226.0 42.0
1226.0 70.0
1226.0 98.0
1226.0 126.0
1226.0 155.0
1226.0 188.0
1226.0 227.0
1226.0 269.0
1226.0 306.0
1226.0 342.0
1226.0 382.0
1251.0 40.0
1251.0 65.0
1251.0 91.0
1251.0 117.0
1251.0 140.0
1251.0 161.0
1251.0 181.0
1251.0 201.0
1251.0 222.0
1251.0 243.0
1251.0 264.0
1251.0 285.0
1251.0 306.0
1251.0 327.0
1251.0 348.0
1251.0 369.0
1251.0 390.0
1253.0 41.0
1253.0 70.0
1253.0 99.0
1253.0 127.0
1253.0 151.0
1253.0 174.0
1253.0 197.0
1253.0 221.0
1253.0 244.0
1253.0 267.0
1253.0 290.0
1253.0 313.0
1253.0 336.0
1253.0 359.0
1253.0 382.0
1254.0 41.0
1254.0 69.0
1254.0 97.0
1254.0 125.0
1254.0 158.0
1254.0 194.0
1254.0 237.0
1254.0 278.0
1254.0 321.0
1254.0 363.0
1337.0 41.0
1337.0 69.0
1337.0 97.0
1337.0 125.0
1337.0 157.0
1337.0 194.0
1337.0 237.0
1337.0 279.0
1337.0 321.0
1337.0 365.0
1340.0 41.0
1340.0 69.0
1340.0 97.0
1340.0 125.0
1340.0 157.0
1340.0 193.0
1340.0 234.0
1340.0 277.0
1340.0 318.0
1340.0 361.0
1340.0 399.0
1345.0 41.0
1345.0 69.0
1345.0 97.0
1345.0 125.0
1345.0 161.0
1345.0 205.0
1345.0 254.0
1345.0 302.0
1345.0 350.0
1345.0 395.0
1390.0 40.0
1390.0 65.0
1390.0 91.0
1390.0 117.0
1390.0 141.0
1390.0 162.0
1390.0 182.0
1390.0 203.0
1390.0 224.0
1390.0 245.0
1390.0 265.0
1390.0 285.0
1390.0 306.0
1390.0 326.0
1390.0 346.0
1390.0 366.0
1390.0 386.0
1404.0 41.0
1404.0 68.0
1404.0 95.0
1404.0 122.0
1404.0 145.0
1404.0 167.0
1404.0 189.0
1404.0 211.0
1404.0 232.0
1404.0 253.0
1404.0 274.0
1404.0 295.0
1404.0 316.0
1404.0 337.0
1404.0 359.0
1404.0 381.0
1417.0 44.0
1417.0 75.0
1417.0 106.0
1417.0 137.0
1417.0 176.0
1417.0 226.0
1417.0 278.0
1417.0 331.0
1417.0 386.0
1418.0 42.0
1418.0 71.0
1418.0 100.0
1418.0 130.0
1418.0 166.0
1418.0 211.0
1418.0 259.0
1418.0 307.0
1418.0 355.0
1418.0 398.0
1423.0 41.0
1423.0 69.0
1423.0 97.0
1423.0 125.0
1423.0 158.0
1423.0 199.0
1423.0 242.0
1423.0 285.0
1423.0 329.0
1423.0 373.0
1442.0 6.0
1442.0 10.0
1442.0 14.0
1442.0 18.0
1442.0 22.0
1442.0 26.0
1442.0 30.0
1442.0 34.0
1442.0 38.0
1442.0 42.0
1442.0 46.0
1442.0 50.0
1442.0 54.0
1442.0 58.0
1442.0 62.0
1442.0 66.0
1442.0 70.0
1442.0 74.0
1442.0 78.0
1442.0 82.0
1442.0 86.0
1442.0 90.0
1442.0 94.0
1442.0 98.0
1442.0 102.0
1442.0 106.0
1442.0 110.0
1442.0 114.0
1442.0 118.0
1442.0 122.0
1442.0 126.0
1442.0 130.0
1442.0 134.0
1442.0 138.0
1442.0 142.0
1442.0 146.0
1442.0 150.0
1442.0 154.0
1442.0 158.0
1442.0 162.0
1442.0 166.0
1442.0 170.0
1442.0 174.0
1442.0 178.0
1442.0 182.0
1442.0 186.0
1442.0 190.0
1442.0 194.0
1442.0 198.0
1442.0 202.0
1442.0 206.0
1442.0 210.0
1442.0 214.0
1442.0 218.0
1442.0 222.0
1442.0 226.0
1442.0 230.0
1442.0 234.0
1442.0 238.0
1442.0 242.0
1442.0 246.0
1442.0 250.0
1442.0 254.0
1442.0 258.0
1442.0 262.0
1442.0 266.0
1442.0 270.0
1442.0 274.0
1442.0 278.0
1442.0 282.0
1442.0 286.0
1442.0 290.0
1442.0 294.0
1442.0 298.0
1442.0 302.0
1442.0 306.0
1442.0 310.0
1442.0 314.0
1442.0 318.0
1442.0 322.0
1442.0 326.0
1442.0 330.0
1442.0 334.0
1442.0 338.0
1442.0 342.0
1442.0 346.0
1442.0 350.0
1442.0 354.0
1442.0 358.0
1442.0 362.0
1442.0 366.0
1442.0 370.0
1442.0 374.0
1442.0 378.0
1442.0 382.0
1442.0 386.0
1442.0 390.0
1442.0 394.0
