14.0 95.0
14.0 159.0
14.0 223.0
14.0 287.0
14.0 334.0
14.0 366.0
14.0 398.0
26.0 29.0
26.0 36.0
26.0 45.0
26.0 52.0
26.0 60.0
26.0 68.0
26.0 76.0
26.0 84.0
26.0 92.0
26.0 100.0
26.0 108.0
26.0 116.0
26.0 124.0
26.0 132.0
26.0 140.0
26.0 148.0
26.0 156.0
26.0 164.0
26.0 172.0
26.0 180.0
26.0 188.0
26.0 196.0
26.0 204.0
26.0 212.0
26.0 220.0
26.0 228.0
26.0 236.0
26.0 244.0
26.0 252.0
26.0 260.0
26.0 268.0
26.0 276.0
26.0 284.0
26.0 292.0
26.0 300.0
26.0 308.0
26.0 316.0
26.0 324.0
26.0 332.0
26.0 340.0
26.0 348.0
26.0 356.0
26.0 364.0
26.0 372.0
26.0 380.0
26.0 388.0
26.0 396.0
62.0 90.0
62.0 161.0
62.0 226.0
62.0 285.0
62.0 331.0
62.0 363.0
62.0 395.0
87.0 87.0
87.0 175.0
87.0 255.0
87.0 319.0
87.0 358.0
87.0 392.0
112.0 118.0
112.0 158.0
112.0 191.0
112.0 221.0
112.0 260.0
112.0 295.0
112.0 331.0
112.0 362.0
112.0 390.0
121.0 385.0
129.0 119.0
129.0 159.0
129.0 194.0
129.0 232.0
129.0 269.0
129.0 305.0
129.0 344.0
129.0 383.0
157.0 101.0
157.0 178.0
157.0 253.0
157.0 307.0
157.0 347.0
157.0 381.0
158.0 387.0
159.0 100.0
159.0 172.0
159.0 244.0
159.0 302.0
159.0 343.0
159.0 378.0
165.0 308.0
165.0 354.0
165.0 396.0
166.0 98.0
166.0 170.0
166.0 242.0
166.0 305.0
166.0 345.0
166.0 377.0
167.0 116.0
167.0 210.0
167.0 306.0
167.0 347.0
167.0 382.0
185.0 82.0
185.0 137.0
185.0 192.0
185.0 248.0
185.0 304.0
185.0 343.0
185.0 372.0
185.0 400.0
195.0 380.0
217.0 113.0
217.0 152.0
217.0 183.0
217.0 215.0
217.0 249.0
217.0 284.0
217.0 320.0
217.0 353.0
217.0 384.0
224.0 98.0
224.0 142.0
224.0 171.0
224.0 199.0
224.0 230.0
224.0 262.0
224.0 294.0
224.0 326.0
224.0 356.0
224.0 383.0
227.0 113.0
227.0 154.0
227.0 188.0
227.0 220.0
227.0 257.0
227.0 296.0
227.0 336.0
227.0 369.0
232.0 98.0
232.0 140.0
232.0 169.0
232.0 197.0
232.0 225.0
232.0 255.0
232.0 286.0
232.0 318.0
232.0 348.0
232.0 376.0
235.0 196.0
235.0 373.0
241.0 96.0
241.0 137.0
241.0 165.0
241.0 192.0
241.0 221.0
241.0 250.0
241.0 281.0
241.0 312.0
241.0 344.0
241.0 369.0
241.0 395.0
258.0 114.0
258.0 154.0
258.0 187.0
258.0 218.0
258.0 256.0
258.0 292.0
258.0 329.0
258.0 362.0
258.0 394.0
259.0 124.0
259.0 162.0
259.0 196.0
259.0 233.0
259.0 273.0
259.0 313.0
259.0 350.0
259.0 385.0
286.0 92.0
286.0 189.0
286.0 268.0
286.0 324.0
286.0 361.0
286.0 394.0
296.0 83.0
296.0 132.0
296.0 179.0
296.0 228.0
296.0 275.0
296.0 316.0
296.0 348.0
296.0 377.0
297.0 375.0
303.0 74.0
303.0 122.0
303.0 170.0
303.0 214.0
303.0 260.0
303.0 305.0
303.0 339.0
303.0 366.0
303.0 393.0
306.0 84.0
306.0 146.0
306.0 212.0
306.0 273.0
306.0 324.0
306.0 358.0
306.0 388.0
328.0 127.0
328.0 164.0
328.0 200.0
328.0 237.0
328.0 274.0
328.0 312.0
328.0 352.0
328.0 386.0
334.0 104.0
334.0 145.0
334.0 175.0
334.0 203.0
334.0 234.0
334.0 269.0
334.0 303.0
334.0 337.0
334.0 367.0
334.0 394.0
347.0 44.0
347.0 66.0
347.0 86.0
347.0 105.0
347.0 124.0
347.0 141.0
347.0 156.0
347.0 172.0
347.0 187.0
347.0 202.0
347.0 217.0
347.0 233.0
347.0 249.0
347.0 265.0
347.0 281.0
347.0 297.0
347.0 312.0
347.0 327.0
347.0 342.0
347.0 355.0
347.0 368.0
347.0 381.0
347.0 393.0
366.0 96.0
366.0 138.0
366.0 168.0
366.0 198.0
366.0 226.0
366.0 258.0
366.0 290.0
366.0 322.0
366.0 353.0
366.0 381.0
368.0 379.0
375.0 395.0
377.0 212.0
377.0 374.0
382.0 130.0
382.0 169.0
382.0 207.0
382.0 249.0
382.0 290.0
382.0 332.0
382.0 371.0
383.0 191.0
383.0 367.0
407.0 374.0
426.0 374.0
428.0 94.0
428.0 154.0
428.0 211.0
428.0 267.0
428.0 315.0
428.0 348.0
428.0 378.0
434.0 90.0
434.0 162.0
434.0 234.0
434.0 293.0
434.0 337.0
434.0 371.0
435.0 101.0
435.0 161.0
435.0 209.0
435.0 266.0
435.0 317.0
435.0 353.0
435.0 380.0
436.0 391.0
445.0 377.0
449.0 203.0
449.0 359.0
449.0 400.0
450.0 83.0
450.0 139.0
450.0 187.0
450.0 241.0
450.0 291.0
450.0 330.0
450.0 361.0
450.0 389.0
456.0 58.0
456.0 89.0
456.0 118.0
456.0 143.0
456.0 164.0
456.0 185.0
456.0 206.0
456.0 227.0
456.0 249.0
456.0 272.0
456.0 294.0
456.0 315.0
456.0 335.0
456.0 353.0
456.0 371.0
456.0 388.0
466.0 175.0
466.0 259.0
466.0 354.0
468.0 205.0
468.0 356.0
474.0 220.0
474.0 361.0
475.0 178.0
475.0 283.0
475.0 359.0
476.0 358.0
477.0 130.0
477.0 202.0
477.0 282.0
477.0 336.0
477.0 372.0
478.0 218.0
478.0 358.0
487.0 115.0
487.0 155.0
487.0 187.0
487.0 222.0
487.0 263.0
487.0 299.0
487.0 338.0
487.0 371.0
493.0 200.0
493.0 373.0
496.0 378.0
513.0 387.0
540.0 395.0
547.0 372.0
558.0 83.0
558.0 139.0
558.0 195.0
558.0 252.0
558.0 301.0
558.0 339.0
558.0 370.0
558.0 397.0
568.0 391.0
580.0 147.0
580.0 260.0
580.0 323.0
580.0 361.0
580.0 394.0
581.0 385.0
588.0 376.0
589.0 378.0
591.0 52.0
591.0 81.0
591.0 106.0
591.0 129.0
591.0 150.0
591.0 170.0
591.0 190.0
591.0 209.0
591.0 229.0
591.0 250.0
591.0 272.0
591.0 292.0
591.0 311.0
591.0 330.0
591.0 347.0
591.0 363.0
591.0 379.0
591.0 394.0
598.0 378.0
599.0 44.0
599.0 66.0
599.0 85.0
599.0 104.0
599.0 123.0
599.0 141.0
599.0 158.0
599.0 173.0
599.0 189.0
599.0 205.0
599.0 221.0
599.0 237.0
599.0 253.0
599.0 270.0
599.0 286.0
599.0 302.0
599.0 318.0
599.0 333.0
599.0 347.0
599.0 361.0
599.0 374.0
599.0 387.0
601.0 196.0
601.0 359.0
605.0 93.0
605.0 132.0
605.0 161.0
605.0 188.0
605.0 217.0
605.0 249.0
605.0 281.0
605.0 313.0
605.0 343.0
605.0 370.0
605.0 394.0
607.0 98.0
607.0 154.0
607.0 203.0
607.0 261.0
607.0 308.0
607.0 345.0
607.0 372.0
612.0 178.0
612.0 348.0
613.0 214.0
613.0 377.0
615.0 389.0
623.0 107.0
623.0 147.0
623.0 179.0
623.0 210.0
623.0 246.0
623.0 282.0
623.0 318.0
623.0 351.0
623.0 382.0
625.0 174.0
625.0 342.0
631.0 215.0
631.0 388.0
632.0 91.0
632.0 132.0
632.0 163.0
632.0 193.0
632.0 221.0
632.0 252.0
632.0 283.0
632.0 314.0
632.0 345.0
632.0 371.0
632.0 397.0
638.0 393.0
641.0 196.0
641.0 372.0
671.0 355.0
677.0 372.0
679.0 352.0
679.0 398.0
680.0 7.0
680.0 12.0
680.0 16.0
680.0 20.0
680.0 24.0
680.0 28.0
680.0 32.0
680.0 36.0
680.0 40.0
680.0 44.0
680.0 48.0
680.0 52.0
680.0 56.0
680.0 60.0
680.0 64.0
680.0 68.0
680.0 72.0
680.0 76.0
680.0 80.0
680.0 84.0
680.0 88.0
680.0 92.0
680.0 96.0
680.0 100.0
680.0 104.0
680.0 108.0
680.0 112.0
680.0 116.0
680.0 120.0
680.0 124.0
680.0 128.0
680.0 132.0
680.0 136.0
680.0 140.0
680.0 144.0
680.0 148.0
680.0 152.0
680.0 156.0
680.0 160.0
680.0 164.0
680.0 168.0
680.0 172.0
680.0 176.0
680.0 180.0
680.0 184.0
680.0 188.0
680.0 192.0
680.0 196.0
680.0 200.0
680.0 204.0
680.0 208.0
680.0 212.0
680.0 216.0
680.0 220.0
680.0 224.0
680.0 228.0
680.0 232.0
680.0 236.0
680.0 240.0
680.0 244.0
680.0 248.0
680.0 252.0
680.0 256.0
680.0 260.0
680.0 264.0
680.0 268.0
680.0 272.0
680.0 276.0
680.0 280.0
680.0 284.0
680.0 287.0
680.0 291.0
680.0 295.0
680.0 298.0
680.0 302.0
680.0 306.0
680.0 310.0
680.0 313.0
680.0 317.0
680.0 320.0
680.0 324.0
680.0 327.0
680.0 330.0
680.0 333.0
680.0 336.0
680.0 339.0
680.0 342.0
680.0 345.0
680.0 348.0
680.0 351.0
680.0 354.0
680.0 357.0
680.0 360.0
680.0 363.0
680.0 366.0
680.0 369.0
680.0 372.0
680.0 375.0
680.0 378.0
680.0 381.0
680.0 384.0
680.0 387.0
680.0 390.0
680.0 393.0
680.0 396.0
687.0 383.0
695.0 370.0
696.0 74.0
696.0 131.0
696.0 188.0
696.0 235.0
696.0 295.0
696.0 354.0
698.0 374.0
704.0 355.0
705.0 377.0
707.0 381.0
708.0 133.0
708.0 171.0
708.0 207.0
708.0 250.0
708.0 292.0
708.0 334.0
708.0 370.0
708.0 398.0
709.0 92.0
709.0 148.0
709.0 202.0
709.0 253.0
709.0 302.0
709.0 338.0
709.0 368.0
709.0 394.0
714.0 40.0
714.0 65.0
714.0 91.0
714.0 118.0
714.0 144.0
714.0 170.0
714.0 195.0
714.0 219.0
714.0 244.0
714.0 270.0
714.0 295.0
714.0 319.0
714.0 341.0
714.0 361.0
714.0 379.0
714.0 398.0
716.0 394.0
717.0 361.0
718.0 90.0
718.0 146.0
718.0 197.0
718.0 252.0
718.0 299.0
718.0 338.0
718.0 370.0
718.0 397.0
725.0 48.0
725.0 75.0
725.0 102.0
725.0 127.0
725.0 147.0
725.0 166.0
725.0 186.0
725.0 206.0
725.0 226.0
725.0 246.0
725.0 266.0
725.0 286.0
725.0 306.0
725.0 327.0
725.0 347.0
725.0 366.0
725.0 386.0
726.0 193.0
726.0 369.0
734.0 66.0
734.0 115.0
734.0 163.0
734.0 203.0
734.0 250.0
734.0 295.0
734.0 340.0
734.0 378.0
735.0 48.0
735.0 76.0
735.0 101.0
735.0 127.0
735.0 148.0
735.0 167.0
735.0 187.0
735.0 207.0
735.0 226.0
735.0 247.0
735.0 267.0
735.0 287.0
735.0 307.0
735.0 328.0
735.0 348.0
735.0 367.0
735.0 386.0
736.0 55.0
736.0 83.0
736.0 110.0
736.0 134.0
736.0 155.0
736.0 176.0
736.0 197.0
736.0 216.0
736.0 236.0
736.0 257.0
736.0 279.0
736.0 299.0
736.0 319.0
736.0 338.0
736.0 355.0
736.0 372.0
736.0 388.0
737.0 399.0
738.0 41.0
738.0 67.0
738.0 95.0
738.0 124.0
738.0 151.0
738.0 178.0
738.0 206.0
738.0 234.0
738.0 262.0
738.0 290.0
738.0 316.0
738.0 339.0
738.0 360.0
738.0 380.0
743.0 374.0
744.0 67.0
744.0 123.0
744.0 174.0
744.0 222.0
744.0 274.0
744.0 326.0
744.0 370.0
745.0 106.0
745.0 148.0
745.0 179.0
745.0 210.0
745.0 246.0
745.0 282.0
745.0 318.0
745.0 354.0
745.0 384.0
751.0 379.0
754.0 204.0
754.0 362.0
762.0 165.0
762.0 229.0
762.0 312.0
762.0 368.0
763.0 9.0
763.0 15.0
763.0 21.0
763.0 27.0
763.0 32.0
763.0 38.0
763.0 44.0
763.0 50.0
763.0 54.0
763.0 59.0
763.0 64.0
763.0 68.0
763.0 72.0
763.0 76.0
763.0 80.0
763.0 84.0
763.0 88.0
763.0 92.0
763.0 96.0
763.0 100.0
763.0 104.0
763.0 108.0
763.0 112.0
763.0 116.0
763.0 120.0
763.0 123.0
763.0 127.0
763.0 130.0
763.0 134.0
763.0 137.0
763.0 140.0
763.0 143.0
763.0 146.0
763.0 149.0
763.0 152.0
763.0 155.0
763.0 158.0
763.0 161.0
763.0 164.0
763.0 167.0
763.0 170.0
763.0 173.0
763.0 176.0
763.0 179.0
763.0 182.0
763.0 185.0
763.0 188.0
763.0 191.0
763.0 194.0
763.0 197.0
763.0 200.0
763.0 203.0
763.0 206.0
763.0 209.0
763.0 212.0
763.0 215.0
763.0 219.0
763.0 222.0
763.0 225.0
763.0 228.0
763.0 231.0
763.0 235.0
763.0 238.0
763.0 241.0
763.0 244.0
763.0 247.0
763.0 251.0
763.0 254.0
763.0 257.0
763.0 260.0
763.0 263.0
763.0 267.0
763.0 270.0
763.0 273.0
763.0 276.0
763.0 279.0
763.0 283.0
763.0 286.0
763.0 289.0
763.0 292.0
763.0 295.0
763.0 299.0
763.0 302.0
763.0 305.0
763.0 308.0
763.0 311.0
763.0 315.0
763.0 318.0
763.0 321.0
763.0 324.0
763.0 328.0
763.0 331.0
763.0 334.0
763.0 337.0
763.0 340.0
763.0 343.0
763.0 346.0
763.0 349.0
763.0 352.0
763.0 355.0
763.0 358.0
763.0 361.0
763.0 364.0
763.0 367.0
763.0 370.0
763.0 373.0
763.0 376.0
763.0 379.0
763.0 382.0
763.0 385.0
763.0 388.0
763.0 391.0
763.0 394.0
763.0 397.0
801.0 357.0
807.0 380.0
811.0 397.0
821.0 391.0
827.0 351.0
832.0 393.0
833.0 383.0
837.0 381.0
839.0 373.0
841.0 63.0
841.0 97.0
841.0 128.0
841.0 154.0
841.0 179.0
841.0 203.0
841.0 227.0
841.0 251.0
841.0 277.0
841.0 301.0
841.0 324.0
841.0 346.0
841.0 366.0
841.0 386.0
842.0 39.0
842.0 68.0
842.0 99.0
842.0 130.0
842.0 161.0
842.0 193.0
842.0 222.0
842.0 253.0
842.0 283.0
842.0 313.0
842.0 338.0
842.0 361.0
842.0 382.0
843.0 59.0
843.0 90.0
843.0 115.0
843.0 140.0
843.0 161.0
843.0 182.0
843.0 203.0
843.0 223.0
843.0 245.0
843.0 267.0
843.0 288.0
843.0 309.0
843.0 328.0
843.0 347.0
843.0 364.0
843.0 381.0
843.0 397.0
847.0 393.0
852.0 40.0
852.0 65.0
852.0 92.0
852.0 118.0
852.0 145.0
852.0 171.0
852.0 197.0
852.0 222.0
852.0 248.0
852.0 273.0
852.0 299.0
852.0 323.0
852.0 343.0
852.0 363.0
852.0 382.0
852.0 400.0
857.0 39.0
857.0 62.0
857.0 86.0
857.0 111.0
857.0 134.0
857.0 158.0
857.0 182.0
857.0 205.0
857.0 228.0
857.0 252.0
857.0 276.0
857.0 299.0
857.0 321.0
857.0 341.0
857.0 360.0
857.0 378.0
857.0 396.0
859.0 380.0
860.0 49.0
860.0 77.0
860.0 101.0
860.0 125.0
860.0 146.0
860.0 165.0
860.0 184.0
860.0 203.0
860.0 221.0
860.0 241.0
860.0 261.0
860.0 281.0
860.0 300.0
860.0 319.0
860.0 337.0
860.0 353.0
860.0 368.0
860.0 383.0
860.0 399.0
861.0 59.0
861.0 90.0
861.0 117.0
861.0 143.0
861.0 165.0
861.0 186.0
861.0 207.0
861.0 229.0
861.0 251.0
861.0 274.0
861.0 296.0
861.0 318.0
861.0 338.0
861.0 356.0
861.0 374.0
861.0 390.0
866.0 31.0
866.0 47.0
866.0 63.0
866.0 78.0
866.0 93.0
866.0 108.0
866.0 122.0
866.0 136.0
866.0 149.0
866.0 162.0
866.0 175.0
866.0 188.0
866.0 200.0
866.0 213.0
866.0 226.0
866.0 239.0
866.0 252.0
866.0 265.0
866.0 278.0
866.0 291.0
866.0 304.0
866.0 317.0
866.0 330.0
866.0 342.0
866.0 354.0
866.0 365.0
866.0 376.0
866.0 387.0
866.0 398.0
870.0 183.0
870.0 359.0
880.0 52.0
880.0 82.0
880.0 110.0
880.0 135.0
880.0 155.0
880.0 174.0
880.0 194.0
880.0 214.0
880.0 235.0
880.0 255.0
880.0 276.0
880.0 298.0
880.0 318.0
880.0 339.0
880.0 358.0
880.0 379.0
880.0 398.0
881.0 199.0
881.0 369.0
883.0 201.0
883.0 376.0
886.0 380.0
889.0 374.0
894.0 201.0
894.0 372.0
911.0 386.0
941.0 40.0
941.0 68.0
941.0 98.0
941.0 128.0
941.0 158.0
941.0 188.0
941.0 219.0
941.0 250.0
941.0 279.0
941.0 309.0
941.0 335.0
941.0 358.0
941.0 381.0
942.0 389.0
949.0 40.0
949.0 65.0
949.0 90.0
949.0 114.0
949.0 139.0
949.0 163.0
949.0 188.0
949.0 214.0
949.0 241.0
949.0 266.0
949.0 291.0
949.0 314.0
949.0 335.0
949.0 354.0
949.0 373.0
949.0 392.0
950.0 39.0
950.0 66.0
950.0 95.0
950.0 125.0
950.0 154.0
950.0 185.0
950.0 213.0
950.0 241.0
950.0 271.0
950.0 299.0
950.0 325.0
950.0 348.0
950.0 369.0
950.0 390.0
959.0 39.0
959.0 66.0
959.0 97.0
959.0 126.0
959.0 155.0
959.0 183.0
959.0 213.0
959.0 243.0
959.0 273.0
959.0 301.0
959.0 327.0
959.0 349.0
959.0 369.0
959.0 389.0
960.0 363.0
971.0 380.0
973.0 38.0
973.0 62.0
973.0 88.0
973.0 114.0
973.0 140.0
973.0 166.0
973.0 192.0
973.0 218.0
973.0 244.0
973.0 270.0
973.0 294.0
973.0 318.0
973.0 340.0
973.0 360.0
973.0 380.0
973.0 400.0
981.0 378.0
989.0 185.0
989.0 364.0
991.0 38.0
991.0 63.0
991.0 89.0
991.0 115.0
991.0 141.0
991.0 166.0
991.0 190.0
991.0 216.0
991.0 242.0
991.0 269.0
991.0 292.0
991.0 317.0
991.0 338.0
991.0 358.0
991.0 377.0
991.0 395.0
992.0 211.0
992.0 378.0
994.0 186.0
994.0 365.0
1001.0 53.0
1001.0 84.0
1001.0 113.0
1001.0 140.0
1001.0 162.0
1001.0 184.0
1001.0 205.0
1001.0 227.0
1001.0 249.0
1001.0 272.0
1001.0 296.0
1001.0 320.0
1001.0 343.0
1001.0 365.0
1001.0 385.0
1003.0 385.0
1010.0 387.0
1012.0 47.0
1012.0 76.0
1012.0 103.0
1012.0 129.0
1012.0 150.0
1012.0 171.0
1012.0 191.0
1012.0 212.0
1012.0 233.0
1012.0 255.0
1012.0 276.0
1012.0 298.0
1012.0 321.0
1012.0 343.0
1012.0 364.0
1012.0 383.0
1014.0 180.0
1014.0 359.0
1016.0 54.0
1016.0 86.0
1016.0 116.0
1016.0 143.0
1016.0 165.0
1016.0 188.0
1016.0 210.0
1016.0 233.0
1016.0 257.0
1016.0 282.0
1016.0 305.0
1016.0 329.0
1016.0 353.0
1016.0 375.0
1016.0 397.0
1018.0 180.0
1018.0 368.0
1021.0 387.0
1022.0 382.0
1031.0 182.0
1031.0 361.0
1038.0 48.0
1038.0 76.0
1038.0 102.0
1038.0 127.0
1038.0 149.0
1038.0 169.0
1038.0 188.0
1038.0 208.0
1038.0 230.0
1038.0 251.0
1038.0 273.0
1038.0 295.0
1038.0 317.0
1038.0 339.0
1038.0 359.0
1038.0 379.0
1038.0 399.0
1067.0 387.0
1068.0 39.0
1068.0 65.0
1068.0 92.0
1068.0 120.0
1068.0 147.0
1068.0 175.0
1068.0 203.0
1068.0 231.0
1068.0 259.0
1068.0 287.0
1068.0 313.0
1068.0 336.0
1068.0 357.0
1068.0 378.0
1068.0 399.0
1075.0 40.0
1075.0 67.0
1075.0 96.0
1075.0 126.0
1075.0 154.0
1075.0 182.0
1075.0 211.0
1075.0 240.0
1075.0 268.0
1075.0 296.0
1075.0 322.0
1075.0 345.0
1075.0 367.0
1075.0 388.0
1084.0 371.0
1087.0 40.0
1087.0 67.0
1087.0 96.0
1087.0 124.0
1087.0 152.0
1087.0 181.0
1087.0 209.0
1087.0 237.0
1087.0 265.0
1087.0 293.0
1087.0 318.0
1087.0 341.0
1087.0 363.0
1087.0 384.0
1088.0 39.0
1088.0 66.0
1088.0 95.0
1088.0 125.0
1088.0 155.0
1088.0 184.0
1088.0 214.0
1088.0 243.0
1088.0 273.0
1088.0 301.0
1088.0 328.0
1088.0 351.0
1088.0 374.0
1088.0 396.0
1105.0 38.0
1105.0 61.0
1105.0 85.0
1105.0 109.0
1105.0 133.0
1105.0 157.0
1105.0 181.0
1105.0 205.0
1105.0 229.0
1105.0 253.0
1105.0 277.0
1105.0 300.0
1105.0 322.0
1105.0 341.0
1105.0 360.0
1105.0 378.0
1105.0 396.0
1110.0 400.0
1114.0 38.0
1114.0 63.0
1114.0 90.0
1114.0 116.0
1114.0 143.0
1114.0 168.0
1114.0 195.0
1114.0 219.0
1114.0 245.0
1114.0 271.0
1114.0 296.0
1114.0 321.0
1114.0 343.0
1114.0 363.0
1114.0 383.0
1117.0 384.0
1118.0 39.0
1118.0 66.0
1118.0 94.0
1118.0 122.0
1118.0 150.0
1118.0 180.0
1118.0 208.0
1118.0 237.0
1118.0 265.0
1118.0 293.0
1118.0 320.0
1118.0 344.0
1118.0 365.0
1118.0 385.0
1127.0 387.0
1133.0 373.0
1134.0 187.0
1134.0 357.0
1135.0 40.0
1135.0 68.0
1135.0 99.0
1135.0 130.0
1135.0 160.0
1135.0 191.0
1135.0 220.0
1135.0 250.0
1135.0 280.0
1135.0 308.0
1135.0 336.0
1135.0 359.0
1135.0 381.0
1136.0 192.0
1144.0 391.0
1148.0 209.0
1148.0 376.0
1156.0 53.0
1156.0 83.0
1156.0 111.0
1156.0 137.0
1156.0 158.0
1156.0 179.0
1156.0 200.0
1156.0 220.0
1156.0 242.0
1156.0 264.0
1156.0 286.0
1156.0 308.0
1156.0 331.0
1156.0 353.0
1156.0 373.0
1156.0 393.0
1165.0 48.0
1165.0 77.0
1165.0 105.0
1165.0 133.0
1165.0 156.0
1165.0 178.0
1165.0 201.0
1165.0 224.0
1165.0 247.0
1165.0 270.0
1165.0 293.0
1165.0 315.0
1165.0 338.0
1165.0 360.0
1165.0 382.0
1172.0 48.0
1172.0 77.0
1172.0 105.0
1172.0 132.0
1172.0 154.0
1172.0 174.0
1172.0 196.0
1172.0 217.0
1172.0 239.0
1172.0 261.0
1172.0 283.0
1172.0 306.0
1172.0 328.0
1172.0 350.0
1172.0 371.0
1172.0 390.0
1196.0 392.0
1204.0 40.0
1204.0 66.0
1204.0 94.0
1204.0 122.0
1204.0 150.0
1204.0 178.0
1204.0 206.0
1204.0 234.0
1204.0 262.0
1204.0 291.0
1204.0 318.0
1204.0 342.0
1204.0 363.0
1204.0 383.0
1205.0 388.0
1222.0 39.0
1222.0 64.0
1222.0 91.0
1222.0 118.0
1222.0 144.0
1222.0 170.0
1222.0 196.0
1222.0 223.0
1222.0 249.0
1222.0 275.0
1222.0 300.0
1222.0 324.0
1222.0 345.0
1222.0 364.0
1222.0 384.0
1226.0 38.0
1226.0 64.0
1226.0 90.0
1226.0 116.0
1226.0 141.0
1226.0 166.0
1226.0 190.0
1226.0 216.0
1226.0 241.0
1226.0 267.0
1226.0 292.0
1226.0 316.0
1226.0 337.0
1226.0 357.0
1226.0 376.0
1226.0 395.0
1251.0 50.0
1251.0 79.0
1251.0 106.0
1251.0 132.0
1251.0 154.0
1251.0 174.0
1251.0 195.0
1251.0 215.0
1251.0 237.0
1251.0 259.0
1251.0 281.0
1251.0 302.0
1251.0 324.0
1251.0 346.0
1251.0 366.0
1251.0 385.0
1252.0 200.0
1252.0 355.0
1253.0 52.0
1253.0 85.0
1253.0 117.0
1253.0 143.0
1253.0 166.0
1253.0 189.0
1253.0 211.0
1253.0 234.0
1253.0 259.0
1253.0 283.0
1253.0 307.0
1253.0 331.0
1253.0 354.0
1253.0 378.0
1253.0 400.0
1254.0 38.0
1254.0 64.0
1254.0 91.0
1254.0 119.0
1254.0 147.0
1254.0 174.0
1254.0 203.0
1254.0 230.0
1254.0 258.0
1254.0 286.0
1254.0 312.0
1254.0 336.0
1254.0 357.0
1254.0 378.0
1254.0 399.0
1262.0 379.0
1271.0 382.0
1305.0 397.0
1337.0 38.0
1337.0 63.0
1337.0 91.0
1337.0 119.0
1337.0 147.0
1337.0 175.0
1337.0 203.0
1337.0 231.0
1337.0 259.0
1337.0 287.0
1337.0 312.0
1337.0 336.0
1337.0 357.0
1337.0 378.0
1337.0 399.0
1340.0 38.0
1340.0 63.0
1340.0 90.0
1340.0 117.0
1340.0 145.0
1340.0 173.0
1340.0 202.0
1340.0 229.0
1340.0 256.0
1340.0 283.0
1340.0 308.0
1340.0 332.0
1340.0 353.0
1340.0 374.0
1340.0 395.0
1345.0 38.0
1345.0 64.0
1345.0 92.0
1345.0 120.0
1345.0 148.0
1345.0 175.0
1345.0 203.0
1345.0 231.0
1345.0 259.0
1345.0 287.0
1345.0 314.0
1345.0 338.0
1345.0 360.0
1345.0 382.0
1390.0 50.0
1390.0 80.0
1390.0 107.0
1390.0 133.0
1390.0 155.0
1390.0 176.0
1390.0 197.0
1390.0 217.0
1390.0 239.0
1390.0 262.0
1390.0 284.0
1390.0 307.0
1390.0 329.0
1390.0 351.0
1390.0 372.0
1390.0 392.0
1404.0 51.0
1404.0 82.0
1404.0 110.0
1404.0 137.0
1404.0 160.0
1404.0 182.0
1404.0 204.0
1404.0 226.0
1404.0 249.0
1404.0 273.0
1404.0 296.0
1404.0 318.0
1404.0 341.0
1404.0 362.0
1404.0 383.0
1417.0 41.0
1417.0 70.0
1417.0 101.0
1417.0 132.0
1417.0 164.0
1417.0 196.0
1417.0 230.0
1417.0 262.0
1417.0 293.0
1417.0 323.0
1417.0 348.0
1417.0 372.0
1417.0 394.0
1418.0 39.0
1418.0 66.0
1418.0 95.0
1418.0 124.0
1418.0 153.0
1418.0 182.0
1418.0 210.0
1418.0 238.0
1418.0 266.0
1418.0 294.0
1418.0 320.0
1418.0 344.0
1418.0 366.0
1418.0 387.0
1423.0 38.0
1423.0 64.0
1423.0 91.0
1423.0 119.0
1423.0 147.0
1423.0 175.0
1423.0 203.0
1423.0 231.0
1423.0 259.0
1423.0 287.0
1423.0 315.0
1423.0 339.0
1423.0 361.0
1423.0 383.0
1442.0 6.0
1442.0 10.0
1442.0 14.0
1442.0 17.0
1442.0 21.0
1442.0 24.0
1442.0 28.0
1442.0 31.0
1442.0 34.0
1442.0 38.0
1442.0 42.0
1442.0 46.0
1442.0 49.0
1442.0 53.0
1442.0 57.0
1442.0 60.0
1442.0 64.0
1442.0 68.0
1442.0 72.0
1442.0 76.0
1442.0 80.0
1442.0 84.0
1442.0 88.0
1442.0 92.0
1442.0 96.0
1442.0 100.0
1442.0 104.0
1442.0 108.0
1442.0 112.0
1442.0 116.0
1442.0 120.0
1442.0 124.0
1442.0 128.0
1442.0 132.0
1442.0 136.0
1442.0 140.0
1442.0 144.0
1442.0 148.0
1442.0 152.0
1442.0 156.0
1442.0 160.0
1442.0 164.0
1442.0 168.0
1442.0 172.0
1442.0 176.0
1442.0 180.0
1442.0 184.0
1442.0 188.0
1442.0 192.0
1442.0 196.0
1442.0 200.0
1442.0 204.0
1442.0 208.0
1442.0 212.0
1442.0 216.0
1442.0 220.0
1442.0 224.0
1442.0 228.0
1442.0 232.0
1442.0 236.0
1442.0 240.0
1442.0 244.0
1442.0 248.0
1442.0 252.0
1442.0 256.0
1442.0 260.0
1442.0 264.0
1442.0 268.0
1442.0 272.0
1442.0 276.0
1442.0 280.0
1442.0 284.0
1442.0 288.0
1442.0 292.0
1442.0 296.0
1442.0 300.0
1442.0 304.0
1442.0 308.0
1442.0 312.0
1442.0 316.0
1442.0 320.0
1442.0 324.0
1442.0 328.0
1442.0 332.0
1442.0 336.0
1442.0 340.0
1442.0 344.0
1442.0 348.0
1442.0 352.0
1442.0 356.0
1442.0 360.0
1442.0 364.0
1442.0 368.0
1442.0 372.0
1442.0 376.0
1442.0 380.0
1442.0 384.0
1442.0 388.0
1442.0 392.0
1442.0 396.0
