14.0 38.0
14.0 64.0
14.0 90.0
14.0 117.0
14.0 144.0
14.0 172.0
14.0 200.0
14.0 228.0
14.0 263.0
14.0 297.0
14.0 342.0
14.0 388.0
26.0 6.0
26.0 10.0
26.0 14.0
26.0 18.0
26.0 22.0
26.0 25.0
26.0 29.0
26.0 33.0
26.0 36.0
26.0 40.0
26.0 44.0
26.0 48.0
26.0 52.0
26.0 55.0
26.0 59.0
26.0 63.0
26.0 66.0
26.0 70.0
26.0 74.0
26.0 78.0
26.0 82.0
26.0 85.0
26.0 89.0
26.0 93.0
26.0 97.0
26.0 101.0
26.0 105.0
26.0 109.0
26.0 113.0
26.0 117.0
26.0 121.0
26.0 125.0
26.0 129.0
26.0 133.0
26.0 137.0
26.0 141.0
26.0 145.0
26.0 149.0
26.0 153.0
26.0 157.0
26.0 161.0
26.0 165.0
26.0 169.0
26.0 173.0
26.0 177.0
26.0 181.0
26.0 185.0
26.0 189.0
26.0 193.0
26.0 197.0
26.0 201.0
26.0 205.0
26.0 209.0
26.0 213.0
26.0 217.0
26.0 221.0
26.0 225.0
26.0 229.0
26.0 234.0
26.0 239.0
26.0 245.0
26.0 250.0
26.0 255.0
26.0 260.0
26.0 265.0
26.0 270.0
26.0 275.0
26.0 280.0
26.0 285.0
26.0 290.0
26.0 295.0
26.0 300.0
26.0 305.0
26.0 310.0
26.0 315.0
26.0 320.0
26.0 325.0
26.0 330.0
26.0 335.0
26.0 340.0
26.0 345.0
26.0 350.0
26.0 355.0
26.0 360.0
26.0 365.0
26.0 370.0
26.0 375.0
26.0 380.0
26.0 385.0
26.0 390.0
26.0 395.0
62.0 40.0
62.0 66.0
62.0 91.0
62.0 119.0
62.0 147.0
62.0 175.0
62.0 203.0
62.0 231.0
62.0 266.0
62.0 300.0
62.0 347.0
87.0 39.0
87.0 66.0
87.0 92.0
87.0 121.0
87.0 149.0
87.0 177.0
87.0 205.0
87.0 233.0
87.0 269.0
87.0 304.0
87.0 359.0
112.0 40.0
112.0 64.0
112.0 88.0
112.0 114.0
112.0 139.0
112.0 164.0
112.0 190.0
112.0 215.0
112.0 244.0
112.0 277.0
112.0 311.0
112.0 342.0
112.0 372.0
112.0 396.0
129.0 41.0
129.0 67.0
129.0 92.0
129.0 119.0
129.0 146.0
129.0 173.0
129.0 200.0
129.0 227.0
129.0 263.0
129.0 299.0
129.0 333.0
129.0 363.0
129.0 388.0
157.0 40.0
157.0 67.0
157.0 93.0
157.0 120.0
157.0 148.0
157.0 176.0
157.0 204.0
157.0 232.0
157.0 268.0
157.0 303.0
157.0 351.0
159.0 39.0
159.0 66.0
159.0 92.0
159.0 120.0
159.0 148.0
159.0 175.0
159.0 203.0
159.0 231.0
159.0 266.0
159.0 302.0
159.0 351.0
165.0 41.0
165.0 71.0
165.0 103.0
165.0 135.0
165.0 168.0
165.0 200.0
165.0 231.0
165.0 276.0
165.0 321.0
166.0 39.0
166.0 65.0
166.0 91.0
166.0 119.0
166.0 147.0
166.0 175.0
166.0 203.0
166.0 231.0
166.0 267.0
166.0 303.0
166.0 352.0
167.0 40.0
167.0 68.0
167.0 95.0
167.0 123.0
167.0 151.0
167.0 179.0
167.0 207.0
167.0 236.0
167.0 275.0
167.0 312.0
167.0 365.0
185.0 39.0
185.0 64.0
185.0 88.0
185.0 115.0
185.0 141.0
185.0 168.0
185.0 195.0
185.0 221.0
185.0 253.0
185.0 287.0
185.0 321.0
185.0 368.0
217.0 39.0
217.0 65.0
217.0 90.0
217.0 117.0
217.0 145.0
217.0 173.0
217.0 200.0
217.0 227.0
217.0 259.0
217.0 293.0
217.0 328.0
217.0 359.0
217.0 385.0
224.0 40.0
224.0 64.0
224.0 87.0
224.0 111.0
224.0 135.0
224.0 159.0
224.0 184.0
224.0 210.0
224.0 236.0
224.0 267.0
224.0 297.0
224.0 327.0
224.0 354.0
224.0 378.0
224.0 399.0
227.0 40.0
227.0 67.0
227.0 93.0
227.0 121.0
227.0 149.0
227.0 177.0
227.0 205.0
227.0 233.0
227.0 270.0
227.0 305.0
227.0 339.0
227.0 371.0
227.0 397.0
232.0 39.0
232.0 62.0
232.0 85.0
232.0 108.0
232.0 132.0
232.0 157.0
232.0 182.0
232.0 206.0
232.0 230.0
232.0 259.0
232.0 290.0
232.0 322.0
232.0 349.0
232.0 374.0
232.0 395.0
241.0 40.0
241.0 63.0
241.0 86.0
241.0 110.0
241.0 134.0
241.0 158.0
241.0 182.0
241.0 207.0
241.0 232.0
241.0 262.0
241.0 292.0
241.0 322.0
241.0 349.0
241.0 374.0
241.0 395.0
258.0 41.0
258.0 68.0
258.0 94.0
258.0 122.0
258.0 150.0
258.0 178.0
258.0 206.0
258.0 234.0
258.0 270.0
258.0 305.0
258.0 337.0
258.0 366.0
258.0 390.0
259.0 41.0
259.0 68.0
259.0 95.0
259.0 124.0
259.0 152.0
259.0 180.0
259.0 208.0
259.0 237.0
259.0 276.0
259.0 312.0
259.0 346.0
259.0 375.0
286.0 40.0
286.0 66.0
286.0 92.0
286.0 119.0
286.0 147.0
286.0 175.0
286.0 203.0
286.0 231.0
286.0 266.0
286.0 302.0
286.0 362.0
296.0 40.0
296.0 64.0
296.0 87.0
296.0 110.0
296.0 134.0
296.0 158.0
296.0 182.0
296.0 206.0
296.0 230.0
296.0 261.0
296.0 291.0
296.0 325.0
296.0 364.0
303.0 39.0
303.0 62.0
303.0 85.0
303.0 108.0
303.0 132.0
303.0 156.0
303.0 180.0
303.0 204.0
303.0 228.0
303.0 257.0
303.0 288.0
303.0 320.0
303.0 360.0
306.0 39.0
306.0 66.0
306.0 92.0
306.0 119.0
306.0 146.0
306.0 174.0
306.0 202.0
306.0 230.0
306.0 264.0
306.0 299.0
306.0 346.0
328.0 39.0
328.0 66.0
328.0 93.0
328.0 122.0
328.0 152.0
328.0 182.0
328.0 212.0
328.0 248.0
328.0 285.0
328.0 323.0
328.0 356.0
328.0 383.0
334.0 40.0
334.0 66.0
334.0 91.0
334.0 118.0
334.0 145.0
334.0 172.0
334.0 199.0
334.0 226.0
334.0 259.0
334.0 293.0
334.0 326.0
334.0 356.0
334.0 380.0
347.0 28.0
347.0 43.0
347.0 57.0
347.0 71.0
347.0 85.0
347.0 99.0
347.0 113.0
347.0 128.0
347.0 142.0
347.0 156.0
347.0 170.0
347.0 184.0
347.0 198.0
347.0 212.0
347.0 226.0
347.0 241.0
347.0 257.0
347.0 273.0
347.0 289.0
347.0 304.0
347.0 321.0
347.0 338.0
347.0 355.0
347.0 371.0
347.0 386.0
366.0 41.0
366.0 65.0
366.0 89.0
366.0 113.0
366.0 138.0
366.0 163.0
366.0 189.0
366.0 215.0
366.0 241.0
366.0 273.0
366.0 304.0
366.0 333.0
366.0 360.0
366.0 384.0
382.0 41.0
382.0 69.0
382.0 97.0
382.0 126.0
382.0 156.0
382.0 186.0
382.0 215.0
382.0 248.0
382.0 285.0
382.0 322.0
382.0 355.0
382.0 382.0
383.0 393.0
428.0 41.0
428.0 68.0
428.0 94.0
428.0 121.0
428.0 148.0
428.0 176.0
428.0 204.0
428.0 232.0
428.0 268.0
428.0 301.0
428.0 348.0
434.0 40.0
434.0 68.0
434.0 95.0
434.0 123.0
434.0 151.0
434.0 179.0
434.0 207.0
434.0 235.0
434.0 271.0
434.0 307.0
434.0 356.0
435.0 40.0
435.0 65.0
435.0 90.0
435.0 116.0
435.0 142.0
435.0 170.0
435.0 198.0
435.0 226.0
435.0 260.0
435.0 294.0
435.0 336.0
435.0 380.0
450.0 38.0
450.0 62.0
450.0 87.0
450.0 112.0
450.0 138.0
450.0 163.0
450.0 189.0
450.0 214.0
450.0 240.0
450.0 271.0
450.0 302.0
450.0 340.0
450.0 384.0
456.0 44.0
456.0 72.0
456.0 99.0
456.0 127.0
456.0 155.0
456.0 183.0
456.0 211.0
456.0 239.0
456.0 267.0
456.0 294.0
456.0 322.0
456.0 355.0
456.0 381.0
466.0 387.0
475.0 385.0
477.0 40.0
477.0 67.0
477.0 93.0
477.0 121.0
477.0 150.0
477.0 178.0
477.0 206.0
477.0 234.0
477.0 272.0
477.0 309.0
477.0 370.0
487.0 41.0
487.0 68.0
487.0 95.0
487.0 123.0
487.0 151.0
487.0 179.0
487.0 207.0
487.0 235.0
487.0 271.0
487.0 305.0
487.0 337.0
487.0 367.0
487.0 390.0
558.0 40.0
558.0 65.0
558.0 89.0
558.0 113.0
558.0 139.0
558.0 164.0
558.0 189.0
558.0 214.0
558.0 240.0
558.0 272.0
558.0 304.0
558.0 348.0
558.0 396.0
580.0 41.0
580.0 69.0
580.0 97.0
580.0 126.0
580.0 155.0
580.0 185.0
580.0 214.0
580.0 245.0
580.0 282.0
580.0 330.0
580.0 385.0
591.0 42.0
591.0 67.0
591.0 92.0
591.0 117.0
591.0 142.0
591.0 167.0
591.0 191.0
591.0 215.0
591.0 239.0
591.0 264.0
591.0 289.0
591.0 315.0
591.0 344.0
591.0 371.0
591.0 395.0
599.0 28.0
599.0 43.0
599.0 57.0
599.0 71.0
599.0 85.0
599.0 100.0
599.0 115.0
599.0 130.0
599.0 144.0
599.0 159.0
599.0 174.0
599.0 189.0
599.0 204.0
599.0 219.0
599.0 234.0
599.0 250.0
599.0 267.0
599.0 283.0
599.0 300.0
599.0 316.0
599.0 333.0
599.0 351.0
599.0 367.0
599.0 383.0
599.0 398.0
601.0 397.0
605.0 41.0
605.0 64.0
605.0 87.0
605.0 110.0
605.0 134.0
605.0 158.0
605.0 182.0
605.0 206.0
605.0 230.0
605.0 260.0
605.0 290.0
605.0 321.0
605.0 350.0
605.0 375.0
605.0 396.0
607.0 41.0
607.0 66.0
607.0 90.0
607.0 116.0
607.0 142.0
607.0 168.0
607.0 194.0
607.0 220.0
607.0 249.0
607.0 280.0
607.0 312.0
607.0 362.0
623.0 42.0
623.0 68.0
623.0 94.0
623.0 121.0
623.0 147.0
623.0 174.0
623.0 202.0
623.0 230.0
623.0 263.0
623.0 297.0
623.0 329.0
623.0 358.0
623.0 383.0
632.0 39.0
632.0 62.0
632.0 85.0
632.0 108.0
632.0 133.0
632.0 158.0
632.0 183.0
632.0 208.0
632.0 232.0
632.0 262.0
632.0 291.0
632.0 321.0
632.0 349.0
632.0 374.0
632.0 396.0
680.0 6.0
680.0 10.0
680.0 14.0
680.0 18.0
680.0 22.0
680.0 26.0
680.0 30.0
680.0 34.0
680.0 38.0
680.0 42.0
680.0 46.0
680.0 50.0
680.0 54.0
680.0 58.0
680.0 62.0
680.0 66.0
680.0 70.0
680.0 74.0
680.0 78.0
680.0 82.0
680.0 86.0
680.0 90.0
680.0 94.0
680.0 98.0
680.0 102.0
680.0 106.0
680.0 110.0
680.0 114.0
680.0 118.0
680.0 122.0
680.0 126.0
680.0 130.0
680.0 134.0
680.0 138.0
680.0 142.0
680.0 146.0
680.0 150.0
680.0 154.0
680.0 158.0
680.0 162.0
680.0 166.0
680.0 170.0
680.0 174.0
680.0 178.0
680.0 182.0
680.0 186.0
680.0 190.0
680.0 194.0
680.0 198.0
680.0 202.0
680.0 206.0
680.0 210.0
680.0 214.0
680.0 218.0
680.0 222.0
680.0 226.0
680.0 230.0
680.0 234.0
680.0 238.0
680.0 242.0
680.0 246.0
680.0 250.0
680.0 254.0
680.0 258.0
680.0 262.0
680.0 266.0
680.0 270.0
680.0 274.0
680.0 278.0
680.0 282.0
680.0 286.0
680.0 290.0
680.0 294.0
680.0 298.0
680.0 302.0
680.0 306.0
680.0 311.0
680.0 315.0
680.0 321.0
680.0 326.0
680.0 331.0
680.0 336.0
680.0 341.0
680.0 346.0
680.0 351.0
680.0 356.0
680.0 361.0
680.0 366.0
680.0 371.0
680.0 376.0
680.0 381.0
680.0 387.0
680.0 393.0
696.0 42.0
696.0 67.0
696.0 92.0
696.0 119.0
696.0 146.0
696.0 172.0
696.0 199.0
696.0 226.0
696.0 258.0
696.0 288.0
696.0 318.0
696.0 348.0
696.0 378.0
708.0 43.0
708.0 71.0
708.0 100.0
708.0 131.0
708.0 163.0
708.0 194.0
708.0 225.0
708.0 263.0
708.0 302.0
708.0 340.0
708.0 373.0
708.0 398.0
709.0 41.0
709.0 65.0
709.0 89.0
709.0 113.0
709.0 138.0
709.0 163.0
709.0 187.0
709.0 212.0
709.0 238.0
709.0 271.0
709.0 306.0
709.0 346.0
709.0 386.0
714.0 44.0
714.0 71.0
714.0 98.0
714.0 124.0
714.0 150.0
714.0 176.0
714.0 202.0
714.0 228.0
714.0 254.0
714.0 280.0
714.0 306.0
714.0 335.0
714.0 365.0
714.0 395.0
718.0 40.0
718.0 64.0
718.0 88.0
718.0 112.0
718.0 137.0
718.0 163.0
718.0 188.0
718.0 214.0
718.0 240.0
718.0 271.0
718.0 302.0
718.0 341.0
718.0 381.0
725.0 45.0
725.0 70.0
725.0 94.0
725.0 118.0
725.0 142.0
725.0 166.0
725.0 190.0
725.0 214.0
725.0 238.0
725.0 263.0
725.0 286.0
725.0 308.0
725.0 330.0
725.0 352.0
725.0 373.0
725.0 392.0
734.0 42.0
734.0 66.0
734.0 89.0
734.0 112.0
734.0 135.0
734.0 159.0
734.0 183.0
734.0 207.0
734.0 231.0
734.0 262.0
734.0 289.0
734.0 316.0
734.0 345.0
734.0 373.0
734.0 399.0
735.0 43.0
735.0 68.0
735.0 92.0
735.0 116.0
735.0 141.0
735.0 166.0
735.0 190.0
735.0 214.0
735.0 239.0
735.0 264.0
735.0 288.0
735.0 312.0
735.0 335.0
735.0 357.0
735.0 378.0
735.0 397.0
736.0 41.0
736.0 67.0
736.0 92.0
736.0 117.0
736.0 142.0
736.0 167.0
736.0 192.0
736.0 216.0
736.0 240.0
736.0 266.0
736.0 292.0
736.0 318.0
736.0 347.0
736.0 372.0
736.0 396.0
738.0 44.0
738.0 72.0
738.0 100.0
738.0 127.0
738.0 154.0
738.0 181.0
738.0 209.0
738.0 236.0
738.0 263.0
738.0 289.0
738.0 317.0
738.0 348.0
738.0 379.0
744.0 42.0
744.0 67.0
744.0 92.0
744.0 119.0
744.0 146.0
744.0 172.0
744.0 198.0
744.0 224.0
744.0 254.0
744.0 285.0
744.0 315.0
744.0 345.0
744.0 376.0
745.0 42.0
745.0 68.0
745.0 94.0
745.0 120.0
745.0 147.0
745.0 174.0
745.0 201.0
745.0 228.0
745.0 262.0
745.0 296.0
745.0 329.0
745.0 359.0
745.0 383.0
762.0 382.0
763.0 6.0
763.0 11.0
763.0 16.0
763.0 20.0
763.0 24.0
763.0 28.0
763.0 32.0
763.0 36.0
763.0 40.0
763.0 44.0
763.0 48.0
763.0 52.0
763.0 56.0
763.0 60.0
763.0 64.0
763.0 68.0
763.0 72.0
763.0 76.0
763.0 80.0
763.0 84.0
763.0 88.0
763.0 92.0
763.0 96.0
763.0 100.0
763.0 104.0
763.0 108.0
763.0 112.0
763.0 116.0
763.0 120.0
763.0 124.0
763.0 128.0
763.0 132.0
763.0 136.0
763.0 140.0
763.0 144.0
763.0 148.0
763.0 152.0
763.0 156.0
763.0 160.0
763.0 164.0
763.0 168.0
763.0 172.0
763.0 176.0
763.0 180.0
763.0 184.0
763.0 188.0
763.0 192.0
763.0 196.0
763.0 200.0
763.0 204.0
763.0 208.0
763.0 212.0
763.0 216.0
763.0 220.0
763.0 224.0
763.0 228.0
763.0 232.0
763.0 236.0
763.0 240.0
763.0 244.0
763.0 248.0
763.0 252.0
763.0 256.0
763.0 260.0
763.0 264.0
763.0 268.0
763.0 272.0
763.0 276.0
763.0 280.0
763.0 284.0
763.0 288.0
763.0 292.0
763.0 296.0
763.0 300.0
763.0 304.0
763.0 308.0
763.0 312.0
763.0 316.0
763.0 320.0
763.0 323.0
763.0 327.0
763.0 331.0
763.0 334.0
763.0 338.0
763.0 342.0
763.0 346.0
763.0 349.0
763.0 353.0
763.0 356.0
763.0 360.0
763.0 363.0
763.0 366.0
763.0 369.0
763.0 372.0
763.0 375.0
763.0 378.0
763.0 381.0
763.0 384.0
763.0 387.0
763.0 390.0
763.0 393.0
763.0 396.0
841.0 45.0
841.0 78.0
841.0 110.0
841.0 142.0
841.0 174.0
841.0 206.0
841.0 238.0
841.0 270.0
841.0 305.0
841.0 341.0
841.0 374.0
842.0 43.0
842.0 73.0
842.0 102.0
842.0 133.0
842.0 162.0
842.0 193.0
842.0 223.0
842.0 253.0
842.0 282.0
842.0 310.0
842.0 347.0
842.0 381.0
843.0 43.0
843.0 70.0
843.0 97.0
843.0 124.0
843.0 150.0
843.0 177.0
843.0 203.0
843.0 230.0
843.0 257.0
843.0 283.0
843.0 308.0
843.0 338.0
843.0 366.0
843.0 390.0
852.0 43.0
852.0 70.0
852.0 98.0
852.0 126.0
852.0 154.0
852.0 181.0
852.0 207.0
852.0 234.0
852.0 260.0
852.0 285.0
852.0 310.0
852.0 341.0
852.0 371.0
857.0 44.0
857.0 69.0
857.0 93.0
857.0 117.0
857.0 141.0
857.0 165.0
857.0 189.0
857.0 213.0
857.0 236.0
857.0 260.0
857.0 284.0
857.0 306.0
857.0 332.0
857.0 359.0
857.0 387.0
860.0 40.0
860.0 63.0
860.0 85.0
860.0 108.0
860.0 131.0
860.0 154.0
860.0 177.0
860.0 200.0
860.0 223.0
860.0 245.0
860.0 268.0
860.0 292.0
860.0 316.0
860.0 342.0
860.0 368.0
860.0 389.0
861.0 44.0
861.0 71.0
861.0 98.0
861.0 125.0
861.0 152.0
861.0 179.0
861.0 207.0
861.0 235.0
861.0 264.0
861.0 292.0
861.0 320.0
861.0 351.0
861.0 377.0
866.0 29.0
866.0 45.0
866.0 59.0
866.0 73.0
866.0 88.0
866.0 102.0
866.0 117.0
866.0 132.0
866.0 147.0
866.0 161.0
866.0 176.0
866.0 190.0
866.0 205.0
866.0 220.0
866.0 234.0
866.0 249.0
866.0 264.0
866.0 278.0
866.0 292.0
866.0 306.0
866.0 321.0
866.0 336.0
866.0 352.0
866.0 366.0
866.0 380.0
866.0 394.0
880.0 46.0
880.0 72.0
880.0 98.0
880.0 123.0
880.0 147.0
880.0 171.0
880.0 195.0
880.0 219.0
880.0 243.0
880.0 270.0
880.0 294.0
880.0 318.0
880.0 341.0
880.0 363.0
880.0 382.0
941.0 43.0
941.0 73.0
941.0 103.0
941.0 134.0
941.0 164.0
941.0 194.0
941.0 225.0
941.0 254.0
941.0 283.0
941.0 311.0
941.0 345.0
941.0 380.0
949.0 42.0
949.0 67.0
949.0 91.0
949.0 115.0
949.0 139.0
949.0 163.0
949.0 187.0
949.0 212.0
949.0 238.0
949.0 263.0
949.0 286.0
949.0 310.0
949.0 338.0
949.0 365.0
949.0 394.0
950.0 42.0
950.0 73.0
950.0 105.0
950.0 135.0
950.0 165.0
950.0 195.0
950.0 225.0
950.0 254.0
950.0 282.0
950.0 310.0
950.0 345.0
950.0 379.0
959.0 43.0
959.0 71.0
959.0 99.0
959.0 127.0
959.0 155.0
959.0 183.0
959.0 211.0
959.0 239.0
959.0 268.0
959.0 295.0
959.0 323.0
959.0 356.0
959.0 389.0
973.0 41.0
973.0 68.0
973.0 94.0
973.0 120.0
973.0 146.0
973.0 172.0
973.0 198.0
973.0 225.0
973.0 252.0
973.0 277.0
973.0 302.0
973.0 331.0
973.0 362.0
973.0 392.0
991.0 43.0
991.0 71.0
991.0 98.0
991.0 124.0
991.0 151.0
991.0 177.0
991.0 203.0
991.0 229.0
991.0 255.0
991.0 280.0
991.0 304.0
991.0 333.0
991.0 363.0
991.0 393.0
1001.0 44.0
1001.0 74.0
1001.0 103.0
1001.0 132.0
1001.0 160.0
1001.0 189.0
1001.0 218.0
1001.0 248.0
1001.0 276.0
1001.0 304.0
1001.0 331.0
1001.0 357.0
1001.0 379.0
1001.0 400.0
1012.0 43.0
1012.0 71.0
1012.0 97.0
1012.0 124.0
1012.0 150.0
1012.0 176.0
1012.0 202.0
1012.0 228.0
1012.0 255.0
1012.0 280.0
1012.0 305.0
1012.0 330.0
1012.0 353.0
1012.0 375.0
1012.0 395.0
1016.0 46.0
1016.0 75.0
1016.0 103.0
1016.0 131.0
1016.0 159.0
1016.0 187.0
1016.0 215.0
1016.0 243.0
1016.0 272.0
1016.0 299.0
1016.0 326.0
1016.0 352.0
1016.0 375.0
1016.0 396.0
1031.0 396.0
1038.0 43.0
1038.0 70.0
1038.0 96.0
1038.0 123.0
1038.0 150.0
1038.0 176.0
1038.0 202.0
1038.0 227.0
1038.0 253.0
1038.0 278.0
1038.0 303.0
1038.0 327.0
1038.0 351.0
1038.0 373.0
1038.0 393.0
1068.0 42.0
1068.0 70.0
1068.0 98.0
1068.0 126.0
1068.0 154.0
1068.0 182.0
1068.0 209.0
1068.0 236.0
1068.0 263.0
1068.0 289.0
1068.0 315.0
1068.0 348.0
1068.0 380.0
1075.0 43.0
1075.0 71.0
1075.0 99.0
1075.0 127.0
1075.0 155.0
1075.0 183.0
1075.0 211.0
1075.0 239.0
1075.0 267.0
1075.0 294.0
1075.0 322.0
1075.0 355.0
1075.0 387.0
1087.0 45.0
1087.0 73.0
1087.0 101.0
1087.0 129.0
1087.0 157.0
1087.0 185.0
1087.0 213.0
1087.0 241.0
1087.0 269.0
1087.0 295.0
1087.0 324.0
1087.0 355.0
1087.0 390.0
1088.0 43.0
1088.0 73.0
1088.0 102.0
1088.0 131.0
1088.0 161.0
1088.0 190.0
1088.0 221.0
1088.0 250.0
1088.0 278.0
1088.0 306.0
1088.0 340.0
1088.0 374.0
1105.0 40.0
1105.0 64.0
1105.0 87.0
1105.0 110.0
1105.0 133.0
1105.0 158.0
1105.0 183.0
1105.0 207.0
1105.0 231.0
1105.0 254.0
1105.0 276.0
1105.0 299.0
1105.0 323.0
1105.0 350.0
1105.0 377.0
1114.0 43.0
1114.0 68.0
1114.0 93.0
1114.0 119.0
1114.0 143.0
1114.0 167.0
1114.0 191.0
1114.0 216.0
1114.0 243.0
1114.0 269.0
1114.0 293.0
1114.0 317.0
1114.0 346.0
1114.0 376.0
1118.0 43.0
1118.0 71.0
1118.0 99.0
1118.0 127.0
1118.0 155.0
1118.0 183.0
1118.0 212.0
1118.0 240.0
1118.0 269.0
1118.0 295.0
1118.0 321.0
1118.0 354.0
1118.0 388.0
1135.0 44.0
1135.0 75.0
1135.0 105.0
1135.0 136.0
1135.0 168.0
1135.0 200.0
1135.0 231.0
1135.0 262.0
1135.0 290.0
1135.0 319.0
1135.0 354.0
1135.0 391.0
1156.0 43.0
1156.0 71.0
1156.0 99.0
1156.0 127.0
1156.0 155.0
1156.0 183.0
1156.0 211.0
1156.0 239.0
1156.0 267.0
1156.0 292.0
1156.0 317.0
1156.0 341.0
1156.0 365.0
1156.0 385.0
1165.0 43.0
1165.0 71.0
1165.0 99.0
1165.0 127.0
1165.0 155.0
1165.0 183.0
1165.0 211.0
1165.0 239.0
1165.0 267.0
1165.0 295.0
1165.0 322.0
1165.0 347.0
1165.0 370.0
1165.0 391.0
1172.0 42.0
1172.0 69.0
1172.0 97.0
1172.0 125.0
1172.0 153.0
1172.0 181.0
1172.0 209.0
1172.0 237.0
1172.0 265.0
1172.0 291.0
1172.0 317.0
1172.0 341.0
1172.0 365.0
1172.0 385.0
1204.0 44.0
1204.0 72.0
1204.0 100.0
1204.0 128.0
1204.0 156.0
1204.0 184.0
1204.0 213.0
1204.0 241.0
1204.0 269.0
1204.0 295.0
1204.0 322.0
1204.0 356.0
1204.0 393.0
1222.0 44.0
1222.0 71.0
1222.0 97.0
1222.0 124.0
1222.0 149.0
1222.0 175.0
1222.0 201.0
1222.0 228.0
1222.0 254.0
1222.0 279.0
1222.0 304.0
1222.0 333.0
1222.0 363.0
1222.0 393.0
1226.0 42.0
1226.0 67.0
1226.0 92.0
1226.0 116.0
1226.0 140.0
1226.0 164.0
1226.0 189.0
1226.0 214.0
1226.0 239.0
1226.0 264.0
1226.0 288.0
1226.0 311.0
1226.0 339.0
1226.0 369.0
1226.0 399.0
1251.0 43.0
1251.0 70.0
1251.0 98.0
1251.0 124.0
1251.0 150.0
1251.0 176.0
1251.0 202.0
1251.0 228.0
1251.0 254.0
1251.0 279.0
1251.0 304.0
1251.0 329.0
1251.0 353.0
1251.0 375.0
1251.0 395.0
1253.0 45.0
1253.0 75.0
1253.0 105.0
1253.0 135.0
1253.0 164.0
1253.0 193.0
1253.0 223.0
1253.0 253.0
1253.0 282.0
1253.0 312.0
1253.0 339.0
1253.0 365.0
1253.0 387.0
1254.0 43.0
1254.0 72.0
1254.0 100.0
1254.0 128.0
1254.0 156.0
1254.0 184.0
1254.0 212.0
1254.0 239.0
1254.0 267.0
1254.0 293.0
1254.0 320.0
1254.0 352.0
1254.0 384.0
1337.0 41.0
1337.0 68.0
1337.0 96.0
1337.0 124.0
1337.0 152.0
1337.0 179.0
1337.0 207.0
1337.0 235.0
1337.0 263.0
1337.0 289.0
1337.0 315.0
1337.0 346.0
1337.0 377.0
1340.0 43.0
1340.0 71.0
1340.0 99.0
1340.0 127.0
1340.0 155.0
1340.0 183.0
1340.0 211.0
1340.0 239.0
1340.0 267.0
1340.0 293.0
1340.0 319.0
1340.0 351.0
1340.0 381.0
1345.0 42.0
1345.0 70.0
1345.0 98.0
1345.0 126.0
1345.0 154.0
1345.0 182.0
1345.0 210.0
1345.0 238.0
1345.0 266.0
1345.0 292.0
1345.0 319.0
1345.0 352.0
1345.0 387.0
1390.0 43.0
1390.0 71.0
1390.0 99.0
1390.0 127.0
1390.0 155.0
1390.0 182.0
1390.0 210.0
1390.0 238.0
1390.0 265.0
1390.0 290.0
1390.0 316.0
1390.0 340.0
1390.0 364.0
1390.0 384.0
1404.0 46.0
1404.0 74.0
1404.0 102.0
1404.0 130.0
1404.0 158.0
1404.0 186.0
1404.0 214.0
1404.0 242.0
1404.0 270.0
1404.0 296.0
1404.0 322.0
1404.0 347.0
1404.0 371.0
1404.0 392.0
1417.0 44.0
1417.0 76.0
1417.0 108.0
1417.0 140.0
1417.0 172.0
1417.0 204.0
1417.0 236.0
1417.0 268.0
1417.0 298.0
1417.0 333.0
1417.0 369.0
1418.0 44.0
1418.0 73.0
1418.0 102.0
1418.0 132.0
1418.0 161.0
1418.0 190.0
1418.0 220.0
1418.0 249.0
1418.0 277.0
1418.0 305.0
1418.0 338.0
1418.0 373.0
1423.0 43.0
1423.0 72.0
1423.0 101.0
1423.0 131.0
1423.0 160.0
1423.0 189.0
1423.0 217.0
1423.0 245.0
1423.0 273.0
1423.0 300.0
1423.0 332.0
1423.0 365.0
1442.0 7.0
1442.0 12.0
1442.0 16.0
1442.0 20.0
1442.0 24.0
1442.0 28.0
1442.0 32.0
1442.0 36.0
1442.0 40.0
1442.0 44.0
1442.0 48.0
1442.0 52.0
1442.0 56.0
1442.0 60.0
1442.0 64.0
1442.0 68.0
1442.0 72.0
1442.0 76.0
1442.0 80.0
1442.0 84.0
1442.0 88.0
1442.0 92.0
1442.0 96.0
1442.0 100.0
1442.0 104.0
1442.0 108.0
1442.0 112.0
1442.0 116.0
1442.0 120.0
1442.0 124.0
1442.0 128.0
1442.0 132.0
1442.0 136.0
1442.0 140.0
1442.0 144.0
1442.0 148.0
1442.0 152.0
1442.0 156.0
1442.0 160.0
1442.0 164.0
1442.0 168.0
1442.0 172.0
1442.0 176.0
1442.0 180.0
1442.0 184.0
1442.0 188.0
1442.0 192.0
1442.0 196.0
1442.0 200.0
1442.0 204.0
1442.0 208.0
1442.0 212.0
1442.0 216.0
1442.0 220.0
1442.0 224.0
1442.0 228.0
1442.0 232.0
1442.0 236.0
1442.0 240.0
1442.0 244.0
1442.0 248.0
1442.0 252.0
1442.0 256.0
1442.0 260.0
1442.0 264.0
1442.0 268.0
1442.0 271.0
1442.0 275.0
1442.0 279.0
1442.0 282.0
1442.0 286.0
1442.0 290.0
1442.0 294.0
1442.0 298.0
1442.0 301.0
1442.0 305.0
1442.0 309.0
1442.0 312.0
1442.0 316.0
1442.0 320.0
1442.0 324.0
1442.0 328.0
1442.0 331.0
1442.0 335.0
1442.0 339.0
1442.0 342.0
1442.0 346.0
1442.0 350.0
1442.0 354.0
1442.0 358.0
1442.0 361.0
1442.0 365.0
1442.0 369.0
1442.0 372.0
1442.0 376.0
1442.0 380.0
1442.0 384.0
1442.0 388.0
1442.0 391.0
1442.0 395.0
1442.0 400.0
