232.0 112.0
235.0 114.0
241.0 97.0
241.0 172.0
303.0 113.0
334.0 104.0
334.0 181.0
347.0 35.0
347.0 53.0
347.0 71.0
347.0 89.0
347.0 106.0
347.0 123.0
347.0 140.0
347.0 158.0
347.0 176.0
347.0 194.0
347.0 215.0
347.0 236.0
347.0 260.0
347.0 289.0
366.0 113.0
383.0 121.0
407.0 119.0
426.0 115.0
428.0 118.0
434.0 128.0
435.0 118.0
445.0 115.0
449.0 115.0
456.0 35.0
456.0 53.0
456.0 70.0
456.0 88.0
456.0 106.0
456.0 124.0
456.0 142.0
456.0 160.0
456.0 178.0
456.0 197.0
456.0 217.0
456.0 239.0
456.0 265.0
466.0 90.0
466.0 159.0
468.0 119.0
475.0 93.0
475.0 162.0
476.0 131.0
478.0 94.0
478.0 163.0
493.0 127.0
568.0 128.0
589.0 102.0
591.0 33.0
591.0 50.0
591.0 66.0
591.0 82.0
591.0 97.0
591.0 113.0
591.0 129.0
591.0 145.0
591.0 161.0
591.0 178.0
591.0 195.0
591.0 213.0
591.0 232.0
591.0 252.0
591.0 278.0
598.0 111.0
599.0 35.0
599.0 53.0
599.0 70.0
599.0 87.0
599.0 104.0
599.0 120.0
599.0 137.0
599.0 154.0
599.0 171.0
599.0 188.0
599.0 207.0
599.0 228.0
599.0 251.0
599.0 279.0
601.0 101.0
605.0 93.0
605.0 175.0
607.0 122.0
612.0 91.0
612.0 150.0
613.0 107.0
625.0 75.0
625.0 131.0
625.0 191.0
632.0 97.0
632.0 174.0
671.0 75.0
671.0 120.0
671.0 181.0
677.0 83.0
677.0 152.0
679.0 93.0
679.0 156.0
680.0 6.0
680.0 10.0
680.0 13.0
680.0 16.0
680.0 19.0
680.0 22.0
680.0 25.0
680.0 29.0
680.0 32.0
680.0 35.0
680.0 38.0
680.0 41.0
680.0 44.0
680.0 47.0
680.0 50.0
680.0 53.0
680.0 56.0
680.0 59.0
680.0 62.0
680.0 65.0
680.0 68.0
680.0 71.0
680.0 74.0
680.0 77.0
680.0 80.0
680.0 83.0
680.0 86.0
680.0 89.0
680.0 92.0
680.0 95.0
680.0 98.0
680.0 101.0
680.0 104.0
680.0 107.0
680.0 110.0
680.0 113.0
680.0 116.0
680.0 119.0
680.0 122.0
680.0 125.0
680.0 128.0
680.0 131.0
680.0 134.0
680.0 137.0
680.0 140.0
680.0 143.0
680.0 146.0
680.0 149.0
680.0 152.0
680.0 155.0
680.0 158.0
680.0 161.0
680.0 164.0
680.0 167.0
680.0 171.0
680.0 174.0
680.0 177.0
680.0 180.0
680.0 183.0
680.0 187.0
680.0 190.0
680.0 193.0
680.0 196.0
680.0 199.0
680.0 203.0
680.0 206.0
680.0 209.0
680.0 212.0
680.0 215.0
680.0 218.0
680.0 221.0
680.0 224.0
680.0 227.0
680.0 230.0
680.0 233.0
680.0 236.0
680.0 239.0
680.0 242.0
680.0 246.0
680.0 250.0
680.0 254.0
680.0 258.0
680.0 262.0
680.0 266.0
680.0 270.0
680.0 274.0
680.0 278.0
680.0 282.0
680.0 287.0
680.0 291.0
680.0 296.0
680.0 302.0
680.0 308.0
680.0 314.0
680.0 321.0
695.0 105.0
698.0 91.0
704.0 92.0
705.0 121.0
707.0 116.0
714.0 36.0
714.0 53.0
714.0 70.0
714.0 86.0
714.0 102.0
714.0 119.0
714.0 137.0
714.0 156.0
714.0 176.0
714.0 197.0
714.0 218.0
714.0 241.0
714.0 277.0
717.0 84.0
717.0 145.0
719.0 88.0
725.0 37.0
725.0 53.0
725.0 68.0
725.0 84.0
725.0 100.0
725.0 118.0
725.0 136.0
725.0 156.0
725.0 176.0
725.0 196.0
725.0 218.0
725.0 247.0
725.0 283.0
726.0 88.0
726.0 165.0
734.0 94.0
735.0 36.0
735.0 53.0
735.0 69.0
735.0 85.0
735.0 100.0
735.0 118.0
735.0 136.0
735.0 156.0
735.0 175.0
735.0 195.0
735.0 217.0
735.0 247.0
735.0 287.0
736.0 34.0
736.0 52.0
736.0 69.0
736.0 86.0
736.0 103.0
736.0 120.0
736.0 137.0
736.0 155.0
736.0 172.0
736.0 190.0
736.0 211.0
736.0 232.0
736.0 254.0
736.0 283.0
738.0 36.0
738.0 54.0
738.0 72.0
738.0 90.0
738.0 108.0
738.0 128.0
738.0 149.0
738.0 171.0
738.0 194.0
738.0 217.0
738.0 242.0
738.0 282.0
743.0 115.0
744.0 106.0
754.0 101.0
754.0 182.0
762.0 98.0
762.0 182.0
763.0 6.0
763.0 10.0
763.0 14.0
763.0 17.0
763.0 21.0
763.0 24.0
763.0 28.0
763.0 31.0
763.0 34.0
763.0 37.0
763.0 40.0
763.0 43.0
763.0 46.0
763.0 49.0
763.0 52.0
763.0 55.0
763.0 58.0
763.0 61.0
763.0 64.0
763.0 67.0
763.0 70.0
763.0 73.0
763.0 76.0
763.0 79.0
763.0 82.0
763.0 85.0
763.0 88.0
763.0 91.0
763.0 94.0
763.0 97.0
763.0 100.0
763.0 103.0
763.0 106.0
763.0 109.0
763.0 112.0
763.0 115.0
763.0 118.0
763.0 121.0
763.0 124.0
763.0 127.0
763.0 130.0
763.0 133.0
763.0 136.0
763.0 139.0
763.0 142.0
763.0 145.0
763.0 148.0
763.0 151.0
763.0 154.0
763.0 157.0
763.0 160.0
763.0 163.0
763.0 166.0
763.0 169.0
763.0 172.0
763.0 175.0
763.0 178.0
763.0 181.0
763.0 184.0
763.0 187.0
763.0 190.0
763.0 193.0
763.0 196.0
763.0 200.0
763.0 204.0
763.0 208.0
763.0 211.0
763.0 215.0
763.0 219.0
763.0 223.0
763.0 227.0
763.0 231.0
763.0 235.0
763.0 239.0
763.0 243.0
763.0 247.0
763.0 251.0
763.0 255.0
763.0 259.0
763.0 263.0
763.0 267.0
763.0 271.0
763.0 275.0
763.0 280.0
763.0 285.0
763.0 291.0
763.0 297.0
763.0 303.0
763.0 309.0
763.0 315.0
763.0 321.0
763.0 327.0
763.0 333.0
763.0 339.0
763.0 347.0
763.0 355.0
763.0 363.0
763.0 371.0
801.0 77.0
801.0 145.0
801.0 229.0
811.0 114.0
827.0 73.0
827.0 125.0
827.0 185.0
832.0 130.0
833.0 113.0
837.0 107.0
839.0 96.0
841.0 35.0
841.0 55.0
841.0 74.0
841.0 94.0
841.0 114.0
841.0 134.0
841.0 153.0
841.0 173.0
841.0 194.0
841.0 217.0
841.0 242.0
841.0 273.0
842.0 35.0
842.0 54.0
842.0 73.0
842.0 93.0
842.0 113.0
842.0 135.0
842.0 159.0
842.0 183.0
842.0 208.0
842.0 234.0
842.0 281.0
843.0 35.0
843.0 53.0
843.0 71.0
843.0 89.0
843.0 107.0
843.0 124.0
843.0 142.0
843.0 160.0
843.0 178.0
843.0 196.0
843.0 217.0
843.0 239.0
843.0 266.0
850.0 97.0
851.0 66.0
851.0 113.0
852.0 35.0
852.0 52.0
852.0 69.0
852.0 85.0
852.0 101.0
852.0 118.0
852.0 136.0
852.0 156.0
852.0 177.0
852.0 198.0
852.0 219.0
852.0 242.0
852.0 278.0
857.0 35.0
857.0 51.0
857.0 66.0
857.0 81.0
857.0 97.0
857.0 113.0
857.0 131.0
857.0 150.0
857.0 168.0
857.0 187.0
857.0 207.0
857.0 227.0
857.0 250.0
857.0 286.0
859.0 136.0
860.0 33.0
860.0 49.0
860.0 65.0
860.0 80.0
860.0 96.0
860.0 111.0
860.0 126.0
860.0 141.0
860.0 157.0
860.0 173.0
860.0 190.0
860.0 208.0
860.0 227.0
860.0 247.0
860.0 272.0
861.0 35.0
861.0 54.0
861.0 73.0
861.0 91.0
861.0 109.0
861.0 127.0
861.0 144.0
861.0 162.0
861.0 181.0
861.0 200.0
861.0 223.0
861.0 246.0
861.0 275.0
863.0 104.0
864.0 104.0
866.0 26.0
866.0 38.0
866.0 49.0
866.0 60.0
866.0 70.0
866.0 80.0
866.0 90.0
866.0 100.0
866.0 110.0
866.0 121.0
866.0 132.0
866.0 143.0
866.0 155.0
866.0 166.0
866.0 178.0
866.0 189.0
866.0 201.0
866.0 214.0
866.0 227.0
866.0 241.0
866.0 256.0
866.0 274.0
866.0 293.0
866.0 320.0
870.0 85.0
870.0 151.0
880.0 38.0
880.0 55.0
880.0 72.0
880.0 89.0
880.0 106.0
880.0 125.0
880.0 145.0
880.0 165.0
880.0 185.0
880.0 206.0
880.0 232.0
880.0 270.0
881.0 120.0
883.0 107.0
886.0 108.0
889.0 121.0
893.0 114.0
894.0 80.0
894.0 132.0
941.0 35.0
941.0 54.0
941.0 73.0
941.0 92.0
941.0 111.0
941.0 132.0
941.0 154.0
941.0 178.0
941.0 202.0
941.0 226.0
941.0 265.0
942.0 95.0
942.0 164.0
949.0 34.0
949.0 51.0
949.0 67.0
949.0 82.0
949.0 98.0
949.0 115.0
949.0 133.0
949.0 153.0
949.0 173.0
949.0 194.0
949.0 214.0
949.0 235.0
949.0 267.0
950.0 34.0
950.0 52.0
950.0 70.0
950.0 87.0
950.0 104.0
950.0 122.0
950.0 141.0
950.0 161.0
950.0 183.0
950.0 206.0
950.0 229.0
950.0 262.0
951.0 93.0
953.0 94.0
959.0 35.0
959.0 54.0
959.0 73.0
959.0 91.0
959.0 109.0
959.0 129.0
959.0 151.0
959.0 173.0
959.0 196.0
959.0 220.0
959.0 247.0
960.0 94.0
973.0 33.0
973.0 50.0
973.0 67.0
973.0 84.0
973.0 100.0
973.0 118.0
973.0 136.0
973.0 156.0
973.0 177.0
973.0 198.0
973.0 219.0
973.0 243.0
973.0 279.0
975.0 119.0
981.0 87.0
981.0 155.0
985.0 77.0
989.0 106.0
989.0 181.0
991.0 34.0
991.0 51.0
991.0 67.0
991.0 83.0
991.0 99.0
991.0 117.0
991.0 136.0
991.0 156.0
991.0 176.0
991.0 197.0
991.0 218.0
991.0 241.0
991.0 275.0
992.0 114.0
994.0 96.0
1001.0 36.0
1001.0 54.0
1001.0 71.0
1001.0 89.0
1001.0 107.0
1001.0 126.0
1001.0 146.0
1001.0 167.0
1001.0 188.0
1001.0 211.0
1001.0 244.0
1010.0 111.0
1012.0 35.0
1012.0 52.0
1012.0 69.0
1012.0 86.0
1012.0 103.0
1012.0 120.0
1012.0 139.0
1012.0 160.0
1012.0 180.0
1012.0 200.0
1012.0 227.0
1012.0 267.0
1014.0 83.0
1014.0 136.0
1016.0 38.0
1016.0 57.0
1016.0 76.0
1016.0 95.0
1016.0 115.0
1016.0 136.0
1016.0 159.0
1016.0 181.0
1016.0 204.0
1016.0 239.0
1018.0 92.0
1018.0 161.0
1022.0 105.0
1031.0 114.0
1038.0 36.0
1038.0 53.0
1038.0 70.0
1038.0 86.0
1038.0 103.0
1038.0 121.0
1038.0 140.0
1038.0 160.0
1038.0 180.0
1038.0 200.0
1038.0 225.0
1038.0 262.0
1067.0 128.0
1068.0 35.0
1068.0 53.0
1068.0 70.0
1068.0 88.0
1068.0 106.0
1068.0 126.0
1068.0 146.0
1068.0 167.0
1068.0 190.0
1068.0 212.0
1068.0 235.0
1068.0 273.0
1075.0 35.0
1075.0 54.0
1075.0 72.0
1075.0 91.0
1075.0 108.0
1075.0 129.0
1075.0 151.0
1075.0 173.0
1075.0 197.0
1075.0 220.0
1075.0 246.0
1075.0 296.0
1084.0 80.0
1084.0 149.0
1087.0 35.0
1087.0 53.0
1087.0 71.0
1087.0 89.0
1087.0 107.0
1087.0 127.0
1087.0 147.0
1087.0 168.0
1087.0 191.0
1087.0 215.0
1087.0 240.0
1087.0 282.0
1088.0 35.0
1088.0 54.0
1088.0 72.0
1088.0 91.0
1088.0 109.0
1088.0 130.0
1088.0 152.0
1088.0 175.0
1088.0 199.0
1088.0 223.0
1088.0 253.0
1105.0 33.0
1105.0 49.0
1105.0 64.0
1105.0 79.0
1105.0 95.0
1105.0 111.0
1105.0 128.0
1105.0 146.0
1105.0 165.0
1105.0 184.0
1105.0 203.0
1105.0 223.0
1105.0 245.0
1105.0 279.0
1107.0 123.0
1114.0 34.0
1114.0 52.0
1114.0 69.0
1114.0 86.0
1114.0 104.0
1114.0 123.0
1114.0 142.0
1114.0 161.0
1114.0 182.0
1114.0 203.0
1114.0 225.0
1114.0 251.0
1114.0 297.0
1115.0 98.0
1117.0 104.0
1118.0 35.0
1118.0 53.0
1118.0 71.0
1118.0 89.0
1118.0 107.0
1118.0 128.0
1118.0 150.0
1118.0 172.0
1118.0 195.0
1118.0 218.0
1118.0 244.0
1118.0 297.0
1133.0 166.0
1134.0 93.0
1134.0 165.0
1135.0 35.0
1135.0 54.0
1135.0 73.0
1135.0 91.0
1135.0 112.0
1135.0 133.0
1135.0 156.0
1135.0 180.0
1135.0 203.0
1135.0 227.0
1135.0 261.0
1136.0 101.0
1136.0 168.0
1144.0 123.0
1148.0 91.0
1148.0 166.0
1156.0 35.0
1156.0 53.0
1156.0 70.0
1156.0 88.0
1156.0 105.0
1156.0 124.0
1156.0 145.0
1156.0 166.0
1156.0 187.0
1156.0 211.0
1156.0 243.0
1165.0 36.0
1165.0 54.0
1165.0 72.0
1165.0 90.0
1165.0 110.0
1165.0 131.0
1165.0 152.0
1165.0 175.0
1165.0 197.0
1165.0 223.0
1165.0 263.0
1172.0 35.0
1172.0 53.0
1172.0 70.0
1172.0 87.0
1172.0 104.0
1172.0 122.0
1172.0 142.0
1172.0 163.0
1172.0 184.0
1172.0 206.0
1172.0 235.0
1172.0 275.0
1174.0 106.0
1196.0 104.0
1204.0 35.0
1204.0 54.0
1204.0 72.0
1204.0 90.0
1204.0 109.0
1204.0 130.0
1204.0 151.0
1204.0 172.0
1204.0 195.0
1204.0 218.0
1204.0 244.0
1204.0 287.0
1205.0 94.0
1222.0 35.0
1222.0 53.0
1222.0 70.0
1222.0 87.0
1222.0 103.0
1222.0 123.0
1222.0 143.0
1222.0 163.0
1222.0 184.0
1222.0 206.0
1222.0 228.0
1222.0 255.0
1225.0 80.0
1226.0 33.0
1226.0 50.0
1226.0 66.0
1226.0 82.0
1226.0 98.0
1226.0 115.0
1226.0 133.0
1226.0 153.0
1226.0 173.0
1226.0 194.0
1226.0 215.0
1226.0 238.0
1226.0 275.0
1241.0 81.0
1243.0 95.0
1244.0 125.0
1251.0 36.0
1251.0 53.0
1251.0 70.0
1251.0 86.0
1251.0 103.0
1251.0 121.0
1251.0 139.0
1251.0 160.0
1251.0 181.0
1251.0 201.0
1251.0 226.0
1251.0 262.0
1252.0 103.0
1253.0 36.0
1253.0 55.0
1253.0 74.0
1253.0 93.0
1253.0 114.0
1253.0 135.0
1253.0 158.0
1253.0 181.0
1253.0 205.0
1253.0 242.0
1254.0 34.0
1254.0 52.0
1254.0 70.0
1254.0 87.0
1254.0 104.0
1254.0 123.0
1254.0 143.0
1254.0 165.0
1254.0 187.0
1254.0 209.0
1254.0 233.0
1254.0 268.0
1257.0 98.0
1262.0 96.0
1262.0 178.0
1271.0 111.0
1300.0 124.0
1305.0 116.0
1337.0 34.0
1337.0 52.0
1337.0 69.0
1337.0 86.0
1337.0 103.0
1337.0 123.0
1337.0 143.0
1337.0 164.0
1337.0 186.0
1337.0 209.0
1337.0 232.0
1337.0 264.0
1340.0 34.0
1340.0 52.0
1340.0 70.0
1340.0 88.0
1340.0 105.0
1340.0 124.0
1340.0 144.0
1340.0 165.0
1340.0 187.0
1340.0 209.0
1340.0 232.0
1340.0 267.0
1345.0 33.0
1345.0 51.0
1345.0 69.0
1345.0 87.0
1345.0 105.0
1345.0 126.0
1345.0 147.0
1345.0 168.0
1345.0 190.0
1345.0 213.0
1345.0 237.0
1345.0 277.0
1355.0 76.0
1390.0 36.0
1390.0 53.0
1390.0 70.0
1390.0 86.0
1390.0 103.0
1390.0 121.0
1390.0 141.0
1390.0 162.0
1390.0 182.0
1390.0 202.0
1390.0 228.0
1390.0 266.0
1404.0 37.0
1404.0 55.0
1404.0 73.0
1404.0 91.0
1404.0 109.0
1404.0 130.0
1404.0 151.0
1404.0 172.0
1404.0 193.0
1404.0 217.0
1404.0 253.0
1417.0 35.0
1417.0 55.0
1417.0 74.0
1417.0 93.0
1417.0 113.0
1417.0 134.0
1417.0 158.0
1417.0 182.0
1417.0 206.0
1417.0 233.0
1417.0 280.0
1418.0 35.0
1418.0 53.0
1418.0 71.0
1418.0 89.0
1418.0 108.0
1418.0 128.0
1418.0 149.0
1418.0 171.0
1418.0 194.0
1418.0 217.0
1418.0 242.0
1418.0 285.0
1419.0 93.0
1423.0 34.0
1423.0 52.0
1423.0 70.0
1423.0 88.0
1423.0 106.0
1423.0 126.0
1423.0 147.0
1423.0 169.0
1423.0 191.0
1423.0 213.0
1423.0 237.0
1423.0 274.0
1433.0 99.0
1436.0 101.0
1442.0 6.0
1442.0 10.0
1442.0 14.0
1442.0 17.0
1442.0 21.0
1442.0 24.0
1442.0 28.0
1442.0 31.0
1442.0 34.0
1442.0 37.0
1442.0 40.0
1442.0 43.0
1442.0 46.0
1442.0 49.0
1442.0 52.0
1442.0 55.0
1442.0 58.0
1442.0 61.0
1442.0 64.0
1442.0 67.0
1442.0 70.0
1442.0 73.0
1442.0 76.0
1442.0 79.0
1442.0 82.0
1442.0 85.0
1442.0 88.0
1442.0 91.0
1442.0 94.0
1442.0 97.0
1442.0 100.0
1442.0 104.0
1442.0 108.0
1442.0 112.0
1442.0 115.0
1442.0 119.0
1442.0 123.0
1442.0 126.0
1442.0 130.0
1442.0 134.0
1442.0 138.0
1442.0 142.0
1442.0 146.0
1442.0 150.0
1442.0 154.0
1442.0 158.0
1442.0 162.0
1442.0 166.0
1442.0 170.0
1442.0 174.0
1442.0 178.0
1442.0 182.0
1442.0 186.0
1442.0 190.0
1442.0 194.0
1442.0 198.0
1442.0 202.0
1442.0 206.0
1442.0 210.0
1442.0 214.0
1442.0 219.0
1442.0 223.0
1442.0 229.0
1442.0 234.0
1442.0 239.0
1442.0 245.0
1442.0 251.0
1442.0 257.0
1442.0 263.0
1442.0 269.0
1442.0 275.0
1442.0 281.0
1442.0 287.0
1442.0 293.0
1442.0 299.0
1442.0 305.0
1442.0 311.0
1442.0 319.0
1442.0 327.0
1442.0 335.0
1442.0 343.0
1442.0 351.0
1442.0 359.0
1442.0 367.0
1442.0 375.0
1442.0 383.0
1442.0 393.0
1445.0 101.0
1446.0 94.0
