347.0 38.0
347.0 68.0
347.0 104.0
347.0 149.0
347.0 194.0
347.0 229.0
347.0 264.0
347.0 297.0
347.0 325.0
347.0 353.0
347.0 379.0
456.0 39.0
456.0 67.0
456.0 102.0
456.0 144.0
456.0 183.0
456.0 219.0
456.0 254.0
456.0 288.0
456.0 315.0
456.0 343.0
456.0 370.0
456.0 396.0
591.0 38.0
591.0 64.0
591.0 94.0
591.0 131.0
591.0 169.0
591.0 202.0
591.0 233.0
591.0 263.0
591.0 293.0
591.0 318.0
591.0 343.0
591.0 367.0
591.0 390.0
599.0 38.0
599.0 67.0
599.0 102.0
599.0 146.0
599.0 188.0
599.0 223.0
599.0 257.0
599.0 291.0
599.0 319.0
599.0 347.0
599.0 372.0
599.0 398.0
680.0 7.0
680.0 12.0
680.0 16.0
680.0 20.0
680.0 24.0
680.0 28.0
680.0 32.0
680.0 37.0
680.0 41.0
680.0 47.0
680.0 52.0
680.0 57.0
680.0 62.0
680.0 67.0
680.0 72.0
680.0 77.0
680.0 82.0
680.0 87.0
680.0 92.0
680.0 97.0
680.0 103.0
680.0 109.0
680.0 115.0
680.0 121.0
680.0 127.0
680.0 133.0
680.0 139.0
680.0 145.0
680.0 151.0
680.0 157.0
680.0 163.0
680.0 169.0
680.0 175.0
680.0 181.0
680.0 187.0
680.0 192.0
680.0 197.0
680.0 202.0
680.0 207.0
680.0 212.0
680.0 217.0
680.0 222.0
680.0 227.0
680.0 232.0
680.0 237.0
680.0 242.0
680.0 247.0
680.0 252.0
680.0 257.0
680.0 262.0
680.0 267.0
680.0 272.0
680.0 277.0
680.0 282.0
680.0 286.0
680.0 290.0
680.0 294.0
680.0 298.0
680.0 302.0
680.0 306.0
680.0 310.0
680.0 314.0
680.0 318.0
680.0 322.0
680.0 326.0
680.0 330.0
680.0 334.0
680.0 338.0
680.0 342.0
680.0 346.0
680.0 350.0
680.0 354.0
680.0 358.0
680.0 362.0
680.0 366.0
680.0 370.0
680.0 374.0
680.0 378.0
680.0 382.0
680.0 386.0
680.0 390.0
680.0 394.0
714.0 40.0
714.0 63.0
714.0 86.0
714.0 110.0
714.0 137.0
714.0 163.0
714.0 188.0
714.0 212.0
714.0 242.0
714.0 273.0
714.0 301.0
714.0 327.0
714.0 352.0
714.0 378.0
719.0 169.0
725.0 37.0
725.0 53.0
725.0 72.0
725.0 92.0
725.0 112.0
725.0 132.0
725.0 153.0
725.0 173.0
725.0 194.0
725.0 216.0
725.0 240.0
725.0 263.0
725.0 287.0
725.0 313.0
725.0 339.0
725.0 363.0
725.0 387.0
729.0 158.0
735.0 35.0
735.0 52.0
735.0 72.0
735.0 93.0
735.0 113.0
735.0 134.0
735.0 154.0
735.0 174.0
735.0 194.0
735.0 216.0
735.0 241.0
735.0 265.0
735.0 289.0
735.0 315.0
735.0 341.0
735.0 367.0
735.0 391.0
736.0 37.0
736.0 64.0
736.0 98.0
736.0 139.0
736.0 177.0
736.0 213.0
736.0 247.0
736.0 280.0
736.0 309.0
736.0 336.0
736.0 362.0
736.0 388.0
738.0 41.0
738.0 67.0
738.0 93.0
738.0 122.0
738.0 151.0
738.0 181.0
738.0 208.0
738.0 242.0
738.0 278.0
738.0 308.0
738.0 337.0
738.0 366.0
738.0 395.0
763.0 6.0
763.0 10.0
763.0 13.0
763.0 17.0
763.0 20.0
763.0 24.0
763.0 27.0
763.0 30.0
763.0 33.0
763.0 36.0
763.0 39.0
763.0 42.0
763.0 45.0
763.0 48.0
763.0 52.0
763.0 56.0
763.0 60.0
763.0 64.0
763.0 68.0
763.0 72.0
763.0 76.0
763.0 80.0
763.0 84.0
763.0 88.0
763.0 92.0
763.0 96.0
763.0 100.0
763.0 104.0
763.0 108.0
763.0 112.0
763.0 116.0
763.0 120.0
763.0 124.0
763.0 128.0
763.0 132.0
763.0 136.0
763.0 140.0
763.0 144.0
763.0 148.0
763.0 152.0
763.0 156.0
763.0 160.0
763.0 164.0
763.0 168.0
763.0 172.0
763.0 176.0
763.0 180.0
763.0 184.0
763.0 188.0
763.0 192.0
763.0 196.0
763.0 200.0
763.0 204.0
763.0 208.0
763.0 212.0
763.0 216.0
763.0 220.0
763.0 224.0
763.0 228.0
763.0 232.0
763.0 236.0
763.0 240.0
763.0 244.0
763.0 248.0
763.0 252.0
763.0 256.0
763.0 260.0
763.0 264.0
763.0 268.0
763.0 272.0
763.0 276.0
763.0 280.0
763.0 284.0
763.0 288.0
763.0 292.0
763.0 296.0
763.0 300.0
763.0 304.0
763.0 308.0
763.0 312.0
763.0 316.0
763.0 320.0
763.0 324.0
763.0 328.0
763.0 332.0
763.0 336.0
763.0 340.0
763.0 344.0
763.0 348.0
763.0 352.0
763.0 355.0
763.0 359.0
763.0 363.0
763.0 366.0
763.0 370.0
763.0 374.0
763.0 378.0
763.0 382.0
763.0 385.0
763.0 389.0
763.0 393.0
763.0 396.0
819.0 208.0
841.0 40.0
841.0 79.0
841.0 138.0
841.0 191.0
841.0 238.0
841.0 279.0
841.0 311.0
841.0 342.0
841.0 372.0
842.0 40.0
842.0 69.0
842.0 97.0
842.0 129.0
842.0 161.0
842.0 193.0
842.0 226.0
842.0 264.0
842.0 298.0
842.0 330.0
842.0 362.0
842.0 394.0
843.0 39.0
843.0 70.0
843.0 107.0
843.0 155.0
843.0 200.0
843.0 235.0
843.0 271.0
843.0 302.0
843.0 331.0
843.0 360.0
843.0 388.0
851.0 72.0
851.0 126.0
851.0 184.0
852.0 40.0
852.0 64.0
852.0 88.0
852.0 113.0
852.0 140.0
852.0 166.0
852.0 193.0
852.0 221.0
852.0 252.0
852.0 283.0
852.0 310.0
852.0 336.0
852.0 363.0
852.0 390.0
857.0 39.0
857.0 60.0
857.0 82.0
857.0 104.0
857.0 129.0
857.0 154.0
857.0 178.0
857.0 201.0
857.0 226.0
857.0 254.0
857.0 283.0
857.0 309.0
857.0 333.0
857.0 357.0
857.0 382.0
860.0 37.0
860.0 61.0
860.0 90.0
860.0 121.0
860.0 156.0
860.0 192.0
860.0 223.0
860.0 254.0
860.0 284.0
860.0 309.0
860.0 334.0
860.0 359.0
860.0 383.0
861.0 38.0
861.0 69.0
861.0 109.0
861.0 162.0
861.0 208.0
861.0 248.0
861.0 287.0
861.0 317.0
861.0 347.0
861.0 375.0
866.0 27.0
866.0 40.0
866.0 52.0
866.0 65.0
866.0 79.0
866.0 93.0
866.0 108.0
866.0 123.0
866.0 138.0
866.0 153.0
866.0 168.0
866.0 183.0
866.0 198.0
866.0 213.0
866.0 229.0
866.0 245.0
866.0 261.0
866.0 277.0
866.0 292.0
866.0 307.0
866.0 322.0
866.0 337.0
866.0 352.0
866.0 366.0
866.0 380.0
866.0 394.0
880.0 37.0
880.0 54.0
880.0 74.0
880.0 94.0
880.0 115.0
880.0 136.0
880.0 157.0
880.0 178.0
880.0 198.0
880.0 222.0
880.0 247.0
880.0 272.0
880.0 298.0
880.0 325.0
880.0 352.0
880.0 377.0
941.0 40.0
941.0 67.0
941.0 94.0
941.0 124.0
941.0 154.0
941.0 184.0
941.0 212.0
941.0 246.0
941.0 281.0
941.0 311.0
941.0 341.0
941.0 371.0
949.0 40.0
949.0 63.0
949.0 86.0
949.0 109.0
949.0 134.0
949.0 158.0
949.0 184.0
949.0 208.0
949.0 237.0
949.0 267.0
949.0 295.0
949.0 320.0
949.0 346.0
949.0 372.0
949.0 398.0
950.0 39.0
950.0 66.0
950.0 92.0
950.0 120.0
950.0 150.0
950.0 178.0
950.0 205.0
950.0 238.0
950.0 271.0
950.0 302.0
950.0 331.0
950.0 361.0
950.0 390.0
951.0 99.0
951.0 199.0
959.0 39.0
959.0 66.0
959.0 93.0
959.0 123.0
959.0 153.0
959.0 182.0
959.0 212.0
959.0 247.0
959.0 283.0
959.0 314.0
959.0 344.0
959.0 374.0
965.0 160.0
973.0 38.0
973.0 61.0
973.0 86.0
973.0 110.0
973.0 137.0
973.0 163.0
973.0 191.0
973.0 218.0
973.0 248.0
973.0 278.0
973.0 306.0
973.0 333.0
973.0 359.0
973.0 385.0
985.0 152.0
991.0 38.0
991.0 62.0
991.0 86.0
991.0 110.0
991.0 137.0
991.0 163.0
991.0 189.0
991.0 214.0
991.0 244.0
991.0 275.0
991.0 303.0
991.0 329.0
991.0 355.0
991.0 381.0
1001.0 35.0
1001.0 53.0
1001.0 74.0
1001.0 96.0
1001.0 117.0
1001.0 138.0
1001.0 159.0
1001.0 180.0
1001.0 201.0
1001.0 225.0
1001.0 252.0
1001.0 279.0
1001.0 306.0
1001.0 334.0
1001.0 361.0
1001.0 389.0
1012.0 34.0
1012.0 51.0
1012.0 71.0
1012.0 92.0
1012.0 113.0
1012.0 134.0
1012.0 155.0
1012.0 176.0
1012.0 197.0
1012.0 221.0
1012.0 247.0
1012.0 272.0
1012.0 298.0
1012.0 325.0
1012.0 352.0
1012.0 377.0
1016.0 37.0
1016.0 56.0
1016.0 78.0
1016.0 102.0
1016.0 126.0
1016.0 150.0
1016.0 174.0
1016.0 198.0
1016.0 226.0
1016.0 255.0
1016.0 283.0
1016.0 314.0
1016.0 346.0
1016.0 375.0
1038.0 35.0
1038.0 52.0
1038.0 72.0
1038.0 93.0
1038.0 113.0
1038.0 133.0
1038.0 153.0
1038.0 173.0
1038.0 193.0
1038.0 215.0
1038.0 239.0
1038.0 265.0
1038.0 291.0
1038.0 318.0
1038.0 344.0
1038.0 369.0
1038.0 395.0
1068.0 40.0
1068.0 65.0
1068.0 90.0
1068.0 118.0
1068.0 146.0
1068.0 173.0
1068.0 200.0
1068.0 231.0
1068.0 264.0
1068.0 295.0
1068.0 323.0
1068.0 351.0
1068.0 379.0
1075.0 40.0
1075.0 66.0
1075.0 92.0
1075.0 120.0
1075.0 149.0
1075.0 179.0
1075.0 206.0
1075.0 238.0
1075.0 272.0
1075.0 303.0
1075.0 332.0
1075.0 362.0
1075.0 391.0
1087.0 40.0
1087.0 66.0
1087.0 91.0
1087.0 118.0
1087.0 148.0
1087.0 177.0
1087.0 204.0
1087.0 237.0
1087.0 271.0
1087.0 302.0
1087.0 331.0
1087.0 361.0
1087.0 390.0
1088.0 40.0
1088.0 66.0
1088.0 92.0
1088.0 120.0
1088.0 149.0
1088.0 178.0
1088.0 205.0
1088.0 237.0
1088.0 271.0
1088.0 302.0
1088.0 331.0
1088.0 361.0
1088.0 390.0
1105.0 38.0
1105.0 59.0
1105.0 80.0
1105.0 102.0
1105.0 126.0
1105.0 150.0
1105.0 174.0
1105.0 198.0
1105.0 224.0
1105.0 252.0
1105.0 281.0
1105.0 306.0
1105.0 330.0
1105.0 354.0
1105.0 378.0
1114.0 38.0
1114.0 62.0
1114.0 87.0
1114.0 113.0
1114.0 140.0
1114.0 167.0
1114.0 193.0
1114.0 220.0
1114.0 251.0
1114.0 283.0
1114.0 312.0
1114.0 340.0
1114.0 367.0
1114.0 393.0
1118.0 39.0
1118.0 65.0
1118.0 92.0
1118.0 121.0
1118.0 151.0
1118.0 180.0
1118.0 207.0
1118.0 242.0
1118.0 278.0
1118.0 309.0
1118.0 339.0
1118.0 369.0
1118.0 398.0
1135.0 40.0
1135.0 67.0
1135.0 94.0
1135.0 123.0
1135.0 153.0
1135.0 183.0
1135.0 213.0
1135.0 249.0
1135.0 284.0
1135.0 316.0
1135.0 348.0
1135.0 380.0
1156.0 34.0
1156.0 52.0
1156.0 73.0
1156.0 94.0
1156.0 115.0
1156.0 137.0
1156.0 158.0
1156.0 179.0
1156.0 200.0
1156.0 225.0
1156.0 251.0
1156.0 277.0
1156.0 304.0
1156.0 331.0
1156.0 358.0
1156.0 385.0
1165.0 35.0
1165.0 53.0
1165.0 75.0
1165.0 98.0
1165.0 120.0
1165.0 143.0
1165.0 165.0
1165.0 187.0
1165.0 209.0
1165.0 236.0
1165.0 263.0
1165.0 291.0
1165.0 320.0
1165.0 349.0
1165.0 375.0
1172.0 34.0
1172.0 52.0
1172.0 72.0
1172.0 93.0
1172.0 114.0
1172.0 135.0
1172.0 156.0
1172.0 177.0
1172.0 198.0
1172.0 222.0
1172.0 249.0
1172.0 275.0
1172.0 302.0
1172.0 329.0
1172.0 356.0
1172.0 382.0
1174.0 205.0
1204.0 40.0
1204.0 66.0
1204.0 92.0
1204.0 120.0
1204.0 150.0
1204.0 180.0
1204.0 207.0
1204.0 239.0
1204.0 273.0
1204.0 304.0
1204.0 334.0
1204.0 363.0
1204.0 392.0
1222.0 39.0
1222.0 63.0
1222.0 88.0
1222.0 113.0
1222.0 140.0
1222.0 168.0
1222.0 195.0
1222.0 223.0
1222.0 254.0
1222.0 285.0
1222.0 313.0
1222.0 341.0
1222.0 369.0
1222.0 396.0
1225.0 166.0
1226.0 38.0
1226.0 62.0
1226.0 86.0
1226.0 111.0
1226.0 137.0
1226.0 164.0
1226.0 191.0
1226.0 218.0
1226.0 251.0
1226.0 282.0
1226.0 310.0
1226.0 337.0
1226.0 363.0
1226.0 389.0
1243.0 161.0
1251.0 35.0
1251.0 52.0
1251.0 71.0
1251.0 91.0
1251.0 111.0
1251.0 132.0
1251.0 153.0
1251.0 174.0
1251.0 195.0
1251.0 219.0
1251.0 246.0
1251.0 271.0
1251.0 296.0
1251.0 322.0
1251.0 349.0
1251.0 374.0
1251.0 400.0
1253.0 35.0
1253.0 54.0
1253.0 77.0
1253.0 100.0
1253.0 123.0
1253.0 146.0
1253.0 169.0
1253.0 193.0
1253.0 219.0
1253.0 248.0
1253.0 277.0
1253.0 308.0
1253.0 339.0
1253.0 368.0
1253.0 397.0
1254.0 38.0
1254.0 63.0
1254.0 88.0
1254.0 115.0
1254.0 143.0
1254.0 169.0
1254.0 197.0
1254.0 228.0
1254.0 261.0
1254.0 293.0
1254.0 321.0
1254.0 349.0
1254.0 377.0
1337.0 38.0
1337.0 63.0
1337.0 88.0
1337.0 114.0
1337.0 141.0
1337.0 169.0
1337.0 196.0
1337.0 225.0
1337.0 258.0
1337.0 289.0
1337.0 316.0
1337.0 344.0
1337.0 372.0
1337.0 400.0
1340.0 38.0
1340.0 62.0
1340.0 87.0
1340.0 113.0
1340.0 140.0
1340.0 166.0
1340.0 193.0
1340.0 222.0
1340.0 254.0
1340.0 287.0
1340.0 315.0
1340.0 343.0
1340.0 371.0
1340.0 399.0
1345.0 38.0
1345.0 64.0
1345.0 90.0
1345.0 117.0
1345.0 147.0
1345.0 175.0
1345.0 203.0
1345.0 235.0
1345.0 268.0
1345.0 300.0
1345.0 328.0
1345.0 356.0
1345.0 384.0
1355.0 81.0
1355.0 147.0
1390.0 35.0
1390.0 52.0
1390.0 71.0
1390.0 91.0
1390.0 112.0
1390.0 133.0
1390.0 154.0
1390.0 174.0
1390.0 195.0
1390.0 219.0
1390.0 245.0
1390.0 270.0
1390.0 296.0
1390.0 322.0
1390.0 348.0
1390.0 373.0
1390.0 399.0
1404.0 36.0
1404.0 54.0
1404.0 75.0
1404.0 97.0
1404.0 118.0
1404.0 140.0
1404.0 162.0
1404.0 183.0
1404.0 204.0
1404.0 230.0
1404.0 257.0
1404.0 283.0
1404.0 311.0
1404.0 339.0
1404.0 366.0
1404.0 392.0
1417.0 41.0
1417.0 69.0
1417.0 96.0
1417.0 127.0
1417.0 158.0
1417.0 189.0
1417.0 223.0
1417.0 262.0
1417.0 298.0
1417.0 329.0
1417.0 361.0
1417.0 393.0
1418.0 39.0
1418.0 65.0
1418.0 91.0
1418.0 119.0
1418.0 149.0
1418.0 177.0
1418.0 204.0
1418.0 236.0
1418.0 270.0
1418.0 301.0
1418.0 330.0
1418.0 358.0
1418.0 387.0
1423.0 38.0
1423.0 63.0
1423.0 88.0
1423.0 115.0
1423.0 145.0
1423.0 173.0
1423.0 200.0
1423.0 231.0
1423.0 263.0
1423.0 296.0
1423.0 324.0
1423.0 352.0
1423.0 380.0
1433.0 159.0
1434.0 176.0
1442.0 6.0
1442.0 10.0
1442.0 14.0
1442.0 17.0
1442.0 21.0
1442.0 24.0
1442.0 28.0
1442.0 31.0
1442.0 34.0
1442.0 37.0
1442.0 40.0
1442.0 43.0
1442.0 46.0
1442.0 49.0
1442.0 52.0
1442.0 55.0
1442.0 58.0
1442.0 61.0
1442.0 64.0
1442.0 67.0
1442.0 70.0
1442.0 73.0
1442.0 76.0
1442.0 79.0
1442.0 82.0
1442.0 85.0
1442.0 88.0
1442.0 91.0
1442.0 94.0
1442.0 97.0
1442.0 100.0
1442.0 103.0
1442.0 106.0
1442.0 109.0
1442.0 112.0
1442.0 115.0
1442.0 118.0
1442.0 121.0
1442.0 124.0
1442.0 127.0
1442.0 130.0
1442.0 133.0
1442.0 136.0
1442.0 139.0
1442.0 142.0
1442.0 145.0
1442.0 148.0
1442.0 151.0
1442.0 154.0
1442.0 157.0
1442.0 160.0
1442.0 163.0
1442.0 166.0
1442.0 169.0
1442.0 172.0
1442.0 175.0
1442.0 178.0
1442.0 181.0
1442.0 184.0
1442.0 187.0
1442.0 190.0
1442.0 193.0
1442.0 196.0
1442.0 199.0
1442.0 202.0
1442.0 206.0
1442.0 210.0
1442.0 214.0
1442.0 217.0
1442.0 221.0
1442.0 225.0
1442.0 228.0
1442.0 232.0
1442.0 236.0
1442.0 240.0
1442.0 244.0
1442.0 247.0
1442.0 251.0
1442.0 255.0
1442.0 258.0
1442.0 262.0
1442.0 266.0
1442.0 270.0
1442.0 274.0
1442.0 277.0
1442.0 281.0
1442.0 285.0
1442.0 289.0
1442.0 293.0
1442.0 297.0
1442.0 301.0
1442.0 305.0
1442.0 309.0
1442.0 313.0
1442.0 317.0
1442.0 321.0
1442.0 325.0
1442.0 329.0
1442.0 333.0
1442.0 337.0
1442.0 341.0
1442.0 345.0
1442.0 349.0
1442.0 353.0
1442.0 357.0
1442.0 361.0
1442.0 365.0
1442.0 369.0
1442.0 373.0
1442.0 377.0
1442.0 381.0
1442.0 385.0
1442.0 389.0
1442.0 393.0
1442.0 398.0
1446.0 178.0
