14.0 58.0
14.0 100.0
14.0 142.0
14.0 184.0
14.0 226.0
14.0 274.0
26.0 7.0
26.0 12.0
26.0 16.0
26.0 20.0
26.0 24.0
26.0 28.0
26.0 32.0
26.0 36.0
26.0 40.0
26.0 44.0
26.0 48.0
26.0 52.0
26.0 56.0
26.0 60.0
26.0 64.0
26.0 68.0
26.0 72.0
26.0 76.0
26.0 80.0
26.0 84.0
26.0 88.0
26.0 92.0
26.0 96.0
26.0 100.0
26.0 104.0
26.0 108.0
26.0 112.0
26.0 116.0
26.0 120.0
26.0 124.0
26.0 128.0
26.0 132.0
26.0 136.0
26.0 140.0
26.0 144.0
26.0 148.0
26.0 152.0
26.0 156.0
26.0 160.0
26.0 164.0
26.0 168.0
26.0 172.0
26.0 176.0
26.0 180.0
26.0 184.0
26.0 188.0
26.0 192.0
26.0 196.0
26.0 200.0
26.0 204.0
26.0 208.0
26.0 212.0
26.0 216.0
26.0 220.0
26.0 224.0
26.0 228.0
26.0 232.0
26.0 236.0
26.0 240.0
26.0 244.0
26.0 248.0
26.0 252.0
26.0 256.0
26.0 261.0
26.0 265.0
26.0 271.0
26.0 276.0
26.0 281.0
26.0 286.0
26.0 291.0
26.0 297.0
26.0 303.0
26.0 309.0
26.0 315.0
26.0 321.0
26.0 327.0
26.0 333.0
26.0 339.0
26.0 345.0
26.0 351.0
26.0 357.0
26.0 363.0
26.0 369.0
26.0 375.0
26.0 381.0
26.0 387.0
26.0 393.0
62.0 58.0
62.0 99.0
62.0 141.0
62.0 185.0
62.0 226.0
62.0 292.0
87.0 58.0
87.0 102.0
87.0 147.0
87.0 190.0
87.0 232.0
112.0 38.0
112.0 61.0
112.0 82.0
112.0 104.0
112.0 125.0
112.0 147.0
112.0 169.0
112.0 192.0
112.0 214.0
112.0 237.0
112.0 259.0
112.0 284.0
112.0 313.0
112.0 345.0
112.0 377.0
129.0 39.0
129.0 62.0
129.0 84.0
129.0 107.0
129.0 130.0
129.0 153.0
129.0 175.0
129.0 198.0
129.0 221.0
129.0 244.0
129.0 268.0
129.0 294.0
129.0 324.0
129.0 354.0
129.0 384.0
157.0 59.0
157.0 102.0
157.0 146.0
157.0 190.0
157.0 234.0
159.0 58.0
159.0 103.0
159.0 146.0
159.0 190.0
159.0 238.0
165.0 77.0
165.0 137.0
165.0 201.0
165.0 261.0
166.0 58.0
166.0 104.0
166.0 149.0
166.0 194.0
166.0 242.0
167.0 62.0
167.0 109.0
167.0 154.0
167.0 201.0
167.0 245.0
185.0 56.0
185.0 93.0
185.0 131.0
185.0 171.0
185.0 212.0
185.0 254.0
217.0 37.0
217.0 59.0
217.0 81.0
217.0 102.0
217.0 125.0
217.0 147.0
217.0 169.0
217.0 192.0
217.0 215.0
217.0 239.0
217.0 261.0
217.0 286.0
217.0 313.0
217.0 342.0
217.0 371.0
217.0 397.0
224.0 38.0
224.0 59.0
224.0 80.0
224.0 99.0
224.0 119.0
224.0 139.0
224.0 160.0
224.0 181.0
224.0 202.0
224.0 223.0
224.0 245.0
224.0 266.0
224.0 288.0
224.0 314.0
224.0 341.0
224.0 367.0
224.0 392.0
227.0 38.0
227.0 61.0
227.0 84.0
227.0 107.0
227.0 131.0
227.0 155.0
227.0 179.0
227.0 203.0
227.0 227.0
227.0 251.0
227.0 277.0
227.0 306.0
227.0 338.0
227.0 368.0
227.0 397.0
232.0 37.0
232.0 56.0
232.0 76.0
232.0 96.0
232.0 115.0
232.0 135.0
232.0 155.0
232.0 175.0
232.0 195.0
232.0 215.0
232.0 236.0
232.0 256.0
232.0 279.0
232.0 302.0
232.0 327.0
232.0 352.0
232.0 377.0
241.0 38.0
241.0 59.0
241.0 80.0
241.0 100.0
241.0 120.0
241.0 140.0
241.0 160.0
241.0 181.0
241.0 202.0
241.0 223.0
241.0 244.0
241.0 265.0
241.0 288.0
241.0 313.0
241.0 339.0
241.0 364.0
241.0 389.0
258.0 38.0
258.0 61.0
258.0 83.0
258.0 106.0
258.0 129.0
258.0 152.0
258.0 175.0
258.0 198.0
258.0 221.0
258.0 244.0
258.0 267.0
258.0 293.0
258.0 322.0
258.0 351.0
258.0 381.0
259.0 37.0
259.0 61.0
259.0 85.0
259.0 109.0
259.0 132.0
259.0 157.0
259.0 181.0
259.0 205.0
259.0 229.0
259.0 253.0
259.0 279.0
259.0 308.0
259.0 340.0
259.0 372.0
286.0 58.0
286.0 98.0
286.0 139.0
286.0 182.0
286.0 226.0
286.0 272.0
296.0 54.0
296.0 89.0
296.0 123.0
296.0 156.0
296.0 189.0
296.0 222.0
296.0 256.0
296.0 308.0
303.0 53.0
303.0 88.0
303.0 124.0
303.0 159.0
303.0 194.0
303.0 229.0
303.0 263.0
303.0 388.0
306.0 61.0
306.0 104.0
306.0 146.0
306.0 188.0
306.0 229.0
306.0 280.0
328.0 37.0
328.0 59.0
328.0 83.0
328.0 104.0
328.0 128.0
328.0 152.0
328.0 175.0
328.0 199.0
328.0 223.0
328.0 247.0
328.0 271.0
328.0 300.0
328.0 331.0
328.0 361.0
328.0 390.0
334.0 38.0
334.0 60.0
334.0 81.0
334.0 103.0
334.0 124.0
334.0 145.0
334.0 166.0
334.0 187.0
334.0 209.0
334.0 230.0
334.0 252.0
334.0 275.0
334.0 300.0
334.0 326.0
334.0 352.0
334.0 378.0
347.0 30.0
347.0 46.0
347.0 61.0
347.0 75.0
347.0 90.0
347.0 105.0
347.0 119.0
347.0 134.0
347.0 149.0
347.0 164.0
347.0 179.0
347.0 195.0
347.0 210.0
347.0 225.0
347.0 240.0
347.0 255.0
347.0 270.0
347.0 287.0
347.0 304.0
347.0 321.0
347.0 339.0
347.0 357.0
347.0 375.0
347.0 393.0
366.0 38.0
366.0 59.0
366.0 80.0
366.0 100.0
366.0 121.0
366.0 141.0
366.0 163.0
366.0 184.0
366.0 205.0
366.0 227.0
366.0 248.0
366.0 269.0
366.0 292.0
366.0 318.0
366.0 345.0
366.0 374.0
366.0 398.0
377.0 117.0
382.0 38.0
382.0 62.0
382.0 85.0
382.0 109.0
382.0 133.0
382.0 158.0
382.0 183.0
382.0 208.0
382.0 233.0
382.0 258.0
382.0 285.0
382.0 315.0
382.0 347.0
382.0 379.0
383.0 111.0
383.0 282.0
383.0 386.0
428.0 55.0
428.0 96.0
428.0 139.0
428.0 179.0
428.0 223.0
428.0 263.0
434.0 58.0
434.0 105.0
434.0 147.0
434.0 190.0
434.0 233.0
435.0 57.0
435.0 97.0
435.0 139.0
435.0 178.0
435.0 217.0
435.0 257.0
450.0 50.0
450.0 86.0
450.0 122.0
450.0 157.0
450.0 193.0
450.0 229.0
450.0 266.0
450.0 386.0
456.0 47.0
456.0 76.0
456.0 105.0
456.0 134.0
456.0 164.0
456.0 195.0
456.0 225.0
456.0 254.0
456.0 284.0
456.0 314.0
456.0 344.0
456.0 374.0
466.0 93.0
466.0 179.0
466.0 264.0
466.0 335.0
466.0 392.0
475.0 117.0
475.0 362.0
477.0 63.0
477.0 108.0
477.0 153.0
477.0 201.0
477.0 249.0
487.0 37.0
487.0 61.0
487.0 83.0
487.0 105.0
487.0 128.0
487.0 151.0
487.0 174.0
487.0 197.0
487.0 220.0
487.0 242.0
487.0 265.0
487.0 292.0
487.0 323.0
487.0 353.0
487.0 382.0
558.0 58.0
558.0 96.0
558.0 134.0
558.0 170.0
558.0 206.0
558.0 242.0
558.0 283.0
580.0 61.0
580.0 109.0
580.0 157.0
580.0 205.0
580.0 250.0
591.0 46.0
591.0 74.0
591.0 100.0
591.0 127.0
591.0 154.0
591.0 183.0
591.0 212.0
591.0 242.0
591.0 270.0
591.0 299.0
591.0 327.0
591.0 355.0
591.0 383.0
599.0 31.0
599.0 47.0
599.0 63.0
599.0 79.0
599.0 95.0
599.0 110.0
599.0 126.0
599.0 141.0
599.0 157.0
599.0 173.0
599.0 189.0
599.0 205.0
599.0 221.0
599.0 237.0
599.0 253.0
599.0 269.0
599.0 286.0
599.0 304.0
599.0 322.0
599.0 340.0
599.0 358.0
599.0 376.0
599.0 393.0
601.0 133.0
605.0 38.0
605.0 58.0
605.0 78.0
605.0 97.0
605.0 117.0
605.0 137.0
605.0 157.0
605.0 178.0
605.0 198.0
605.0 218.0
605.0 238.0
605.0 258.0
605.0 281.0
605.0 303.0
605.0 326.0
605.0 350.0
605.0 377.0
607.0 57.0
607.0 94.0
607.0 135.0
607.0 173.0
607.0 209.0
607.0 250.0
612.0 391.0
613.0 399.0
623.0 38.0
623.0 61.0
623.0 83.0
623.0 106.0
623.0 128.0
623.0 150.0
623.0 172.0
623.0 194.0
623.0 216.0
623.0 238.0
623.0 261.0
623.0 284.0
623.0 310.0
623.0 339.0
623.0 369.0
623.0 396.0
632.0 37.0
632.0 58.0
632.0 79.0
632.0 99.0
632.0 119.0
632.0 139.0
632.0 160.0
632.0 181.0
632.0 202.0
632.0 223.0
632.0 244.0
632.0 264.0
632.0 288.0
632.0 313.0
632.0 340.0
632.0 367.0
632.0 393.0
680.0 9.0
680.0 15.0
680.0 21.0
680.0 27.0
680.0 33.0
680.0 39.0
680.0 45.0
680.0 51.0
680.0 57.0
680.0 63.0
680.0 69.0
680.0 75.0
680.0 81.0
680.0 87.0
680.0 93.0
680.0 99.0
680.0 105.0
680.0 111.0
680.0 117.0
680.0 123.0
680.0 129.0
680.0 135.0
680.0 141.0
680.0 147.0
680.0 153.0
680.0 159.0
680.0 165.0
680.0 171.0
680.0 177.0
680.0 183.0
680.0 189.0
680.0 195.0
680.0 201.0
680.0 207.0
680.0 213.0
680.0 219.0
680.0 225.0
680.0 231.0
680.0 237.0
680.0 243.0
680.0 249.0
680.0 255.0
680.0 261.0
680.0 267.0
680.0 273.0
680.0 279.0
680.0 285.0
680.0 291.0
680.0 297.0
680.0 303.0
680.0 309.0
680.0 315.0
680.0 321.0
680.0 327.0
680.0 333.0
680.0 339.0
680.0 345.0
680.0 351.0
680.0 357.0
680.0 363.0
680.0 369.0
680.0 375.0
680.0 381.0
680.0 387.0
680.0 393.0
696.0 42.0
696.0 66.0
696.0 91.0
696.0 114.0
696.0 134.0
696.0 154.0
696.0 174.0
696.0 194.0
696.0 214.0
696.0 235.0
696.0 255.0
696.0 277.0
696.0 301.0
696.0 327.0
696.0 353.0
696.0 379.0
708.0 40.0
708.0 64.0
708.0 88.0
708.0 112.0
708.0 135.0
708.0 162.0
708.0 186.0
708.0 212.0
708.0 239.0
708.0 264.0
708.0 292.0
708.0 329.0
708.0 362.0
708.0 394.0
709.0 55.0
709.0 91.0
709.0 126.0
709.0 162.0
709.0 199.0
709.0 234.0
709.0 277.0
714.0 52.0
714.0 88.0
714.0 118.0
714.0 144.0
714.0 169.0
714.0 195.0
714.0 220.0
714.0 247.0
714.0 274.0
714.0 301.0
714.0 327.0
714.0 352.0
714.0 377.0
718.0 54.0
718.0 91.0
718.0 127.0
718.0 163.0
718.0 199.0
718.0 235.0
718.0 269.0
718.0 387.0
719.0 154.0
719.0 232.0
719.0 314.0
725.0 39.0
725.0 59.0
725.0 78.0
725.0 97.0
725.0 115.0
725.0 132.0
725.0 149.0
725.0 166.0
725.0 184.0
725.0 201.0
725.0 219.0
725.0 236.0
725.0 253.0
725.0 270.0
725.0 286.0
725.0 303.0
725.0 319.0
725.0 336.0
725.0 353.0
725.0 370.0
725.0 386.0
726.0 155.0
726.0 392.0
729.0 146.0
729.0 223.0
729.0 301.0
729.0 385.0
734.0 42.0
734.0 65.0
734.0 90.0
734.0 111.0
734.0 131.0
734.0 149.0
734.0 168.0
734.0 187.0
734.0 206.0
734.0 226.0
734.0 246.0
734.0 265.0
734.0 287.0
734.0 311.0
734.0 336.0
734.0 360.0
734.0 385.0
735.0 36.0
735.0 56.0
735.0 76.0
735.0 95.0
735.0 114.0
735.0 131.0
735.0 148.0
735.0 165.0
735.0 183.0
735.0 200.0
735.0 218.0
735.0 235.0
735.0 252.0
735.0 269.0
735.0 286.0
735.0 303.0
735.0 319.0
735.0 337.0
735.0 354.0
735.0 372.0
735.0 388.0
736.0 44.0
736.0 69.0
736.0 97.0
736.0 124.0
736.0 151.0
736.0 179.0
736.0 206.0
736.0 234.0
736.0 262.0
736.0 291.0
736.0 317.0
736.0 345.0
736.0 375.0
738.0 54.0
738.0 92.0
738.0 123.0
738.0 151.0
738.0 178.0
738.0 205.0
738.0 233.0
738.0 261.0
738.0 289.0
738.0 316.0
738.0 345.0
738.0 375.0
744.0 42.0
744.0 66.0
744.0 91.0
744.0 114.0
744.0 134.0
744.0 154.0
744.0 174.0
744.0 194.0
744.0 214.0
744.0 234.0
744.0 254.0
744.0 275.0
744.0 298.0
744.0 323.0
744.0 349.0
744.0 375.0
745.0 38.0
745.0 61.0
745.0 83.0
745.0 105.0
745.0 127.0
745.0 149.0
745.0 171.0
745.0 194.0
745.0 218.0
745.0 241.0
745.0 263.0
745.0 288.0
745.0 315.0
745.0 345.0
745.0 375.0
762.0 92.0
762.0 157.0
762.0 238.0
762.0 296.0
762.0 362.0
763.0 6.0
763.0 10.0
763.0 13.0
763.0 17.0
763.0 20.0
763.0 24.0
763.0 27.0
763.0 30.0
763.0 33.0
763.0 37.0
763.0 40.0
763.0 43.0
763.0 46.0
763.0 49.0
763.0 53.0
763.0 56.0
763.0 59.0
763.0 62.0
763.0 65.0
763.0 69.0
763.0 72.0
763.0 75.0
763.0 78.0
763.0 81.0
763.0 85.0
763.0 88.0
763.0 91.0
763.0 94.0
763.0 97.0
763.0 101.0
763.0 104.0
763.0 107.0
763.0 110.0
763.0 113.0
763.0 117.0
763.0 120.0
763.0 123.0
763.0 126.0
763.0 129.0
763.0 133.0
763.0 136.0
763.0 139.0
763.0 143.0
763.0 146.0
763.0 149.0
763.0 153.0
763.0 156.0
763.0 159.0
763.0 163.0
763.0 166.0
763.0 169.0
763.0 173.0
763.0 176.0
763.0 179.0
763.0 183.0
763.0 186.0
763.0 189.0
763.0 193.0
763.0 196.0
763.0 199.0
763.0 203.0
763.0 206.0
763.0 209.0
763.0 213.0
763.0 216.0
763.0 219.0
763.0 223.0
763.0 226.0
763.0 229.0
763.0 233.0
763.0 236.0
763.0 239.0
763.0 243.0
763.0 246.0
763.0 249.0
763.0 253.0
763.0 256.0
763.0 259.0
763.0 262.0
763.0 265.0
763.0 269.0
763.0 272.0
763.0 275.0
763.0 278.0
763.0 281.0
763.0 285.0
763.0 288.0
763.0 291.0
763.0 294.0
763.0 297.0
763.0 301.0
763.0 304.0
763.0 307.0
763.0 310.0
763.0 313.0
763.0 317.0
763.0 320.0
763.0 323.0
763.0 326.0
763.0 329.0
763.0 333.0
763.0 336.0
763.0 339.0
763.0 342.0
763.0 345.0
763.0 349.0
763.0 352.0
763.0 355.0
763.0 358.0
763.0 361.0
763.0 365.0
763.0 368.0
763.0 371.0
763.0 374.0
763.0 377.0
763.0 380.0
763.0 383.0
763.0 386.0
763.0 389.0
763.0 392.0
763.0 395.0
819.0 181.0
819.0 310.0
841.0 49.0
841.0 84.0
841.0 120.0
841.0 158.0
841.0 195.0
841.0 229.0
841.0 270.0
841.0 304.0
841.0 339.0
841.0 377.0
842.0 60.0
842.0 102.0
842.0 134.0
842.0 165.0
842.0 195.0
842.0 225.0
842.0 256.0
842.0 286.0
842.0 318.0
842.0 351.0
842.0 384.0
843.0 46.0
843.0 72.0
843.0 101.0
843.0 129.0
843.0 156.0
843.0 185.0
843.0 215.0
843.0 245.0
843.0 272.0
843.0 301.0
843.0 331.0
843.0 360.0
843.0 389.0
850.0 139.0
850.0 198.0
850.0 267.0
850.0 348.0
851.0 133.0
851.0 192.0
851.0 249.0
851.0 304.0
851.0 361.0
852.0 51.0
852.0 88.0
852.0 118.0
852.0 145.0
852.0 171.0
852.0 197.0
852.0 223.0
852.0 249.0
852.0 276.0
852.0 302.0
852.0 328.0
852.0 355.0
852.0 380.0
857.0 49.0
857.0 81.0
857.0 109.0
857.0 132.0
857.0 155.0
857.0 177.0
857.0 201.0
857.0 224.0
857.0 248.0
857.0 270.0
857.0 292.0
857.0 315.0
857.0 339.0
857.0 363.0
857.0 387.0
860.0 44.0
860.0 68.0
860.0 94.0
860.0 118.0
860.0 143.0
860.0 169.0
860.0 195.0
860.0 220.0
860.0 247.0
860.0 272.0
860.0 297.0
860.0 322.0
860.0 348.0
860.0 375.0
860.0 398.0
861.0 45.0
861.0 74.0
861.0 104.0
861.0 133.0
861.0 163.0
861.0 194.0
861.0 224.0
861.0 254.0
861.0 283.0
861.0 314.0
861.0 345.0
861.0 377.0
863.0 152.0
863.0 226.0
863.0 304.0
863.0 394.0
864.0 160.0
864.0 226.0
864.0 289.0
864.0 358.0
866.0 30.0
866.0 45.0
866.0 60.0
866.0 75.0
866.0 90.0
866.0 105.0
866.0 118.0
866.0 131.0
866.0 144.0
866.0 157.0
866.0 171.0
866.0 184.0
866.0 197.0
866.0 211.0
866.0 224.0
866.0 238.0
866.0 251.0
866.0 264.0
866.0 277.0
866.0 290.0
866.0 303.0
866.0 316.0
866.0 329.0
866.0 342.0
866.0 355.0
866.0 368.0
866.0 381.0
866.0 394.0
869.0 147.0
869.0 243.0
870.0 310.0
870.0 387.0
872.0 169.0
872.0 262.0
880.0 39.0
880.0 59.0
880.0 78.0
880.0 97.0
880.0 115.0
880.0 132.0
880.0 149.0
880.0 166.0
880.0 183.0
880.0 200.0
880.0 216.0
880.0 233.0
880.0 250.0
880.0 267.0
880.0 284.0
880.0 301.0
880.0 318.0
880.0 335.0
880.0 352.0
880.0 369.0
880.0 386.0
894.0 397.0
941.0 60.0
941.0 103.0
941.0 133.0
941.0 163.0
941.0 194.0
941.0 223.0
941.0 254.0
941.0 284.0
941.0 315.0
941.0 346.0
941.0 379.0
949.0 51.0
949.0 85.0
949.0 115.0
949.0 139.0
949.0 163.0
949.0 188.0
949.0 212.0
949.0 238.0
949.0 262.0
949.0 286.0
949.0 310.0
949.0 334.0
949.0 361.0
949.0 388.0
950.0 55.0
950.0 98.0
950.0 130.0
950.0 157.0
950.0 187.0
950.0 218.0
950.0 246.0
950.0 276.0
950.0 304.0
950.0 331.0
950.0 360.0
950.0 387.0
951.0 150.0
951.0 225.0
951.0 315.0
959.0 57.0
959.0 98.0
959.0 129.0
959.0 156.0
959.0 184.0
959.0 213.0
959.0 243.0
959.0 272.0
959.0 300.0
959.0 331.0
959.0 362.0
959.0 392.0
965.0 141.0
965.0 216.0
965.0 297.0
965.0 372.0
973.0 49.0
973.0 85.0
973.0 116.0
973.0 143.0
973.0 170.0
973.0 195.0
973.0 222.0
973.0 248.0
973.0 275.0
973.0 301.0
973.0 327.0
973.0 352.0
973.0 379.0
985.0 128.0
985.0 183.0
985.0 236.0
985.0 293.0
985.0 362.0
989.0 146.0
991.0 51.0
991.0 87.0
991.0 116.0
991.0 142.0
991.0 167.0
991.0 192.0
991.0 219.0
991.0 246.0
991.0 272.0
991.0 298.0
991.0 326.0
991.0 351.0
991.0 377.0
992.0 162.0
992.0 258.0
992.0 388.0
994.0 399.0
1001.0 37.0
1001.0 60.0
1001.0 82.0
1001.0 105.0
1001.0 124.0
1001.0 143.0
1001.0 161.0
1001.0 179.0
1001.0 198.0
1001.0 217.0
1001.0 235.0
1001.0 254.0
1001.0 273.0
1001.0 292.0
1001.0 311.0
1001.0 329.0
1001.0 348.0
1001.0 367.0
1001.0 385.0
1004.0 246.0
1004.0 370.0
1012.0 35.0
1012.0 56.0
1012.0 76.0
1012.0 97.0
1012.0 116.0
1012.0 133.0
1012.0 151.0
1012.0 169.0
1012.0 188.0
1012.0 206.0
1012.0 224.0
1012.0 242.0
1012.0 260.0
1012.0 278.0
1012.0 296.0
1012.0 314.0
1012.0 332.0
1012.0 350.0
1012.0 368.0
1012.0 385.0
1016.0 39.0
1016.0 62.0
1016.0 84.0
1016.0 106.0
1016.0 125.0
1016.0 144.0
1016.0 163.0
1016.0 182.0
1016.0 202.0
1016.0 222.0
1016.0 242.0
1016.0 262.0
1016.0 281.0
1016.0 300.0
1016.0 319.0
1016.0 339.0
1016.0 358.0
1016.0 377.0
1016.0 395.0
1018.0 399.0
1028.0 261.0
1031.0 129.0
1031.0 299.0
1031.0 391.0
1038.0 36.0
1038.0 58.0
1038.0 79.0
1038.0 99.0
1038.0 118.0
1038.0 135.0
1038.0 152.0
1038.0 170.0
1038.0 188.0
1038.0 206.0
1038.0 224.0
1038.0 242.0
1038.0 260.0
1038.0 278.0
1038.0 295.0
1038.0 313.0
1038.0 331.0
1038.0 348.0
1038.0 366.0
1038.0 383.0
1038.0 399.0
1068.0 54.0
1068.0 92.0
1068.0 122.0
1068.0 150.0
1068.0 177.0
1068.0 204.0
1068.0 231.0
1068.0 258.0
1068.0 285.0
1068.0 312.0
1068.0 339.0
1068.0 367.0
1068.0 395.0
1075.0 55.0
1075.0 93.0
1075.0 124.0
1075.0 152.0
1075.0 181.0
1075.0 211.0
1075.0 241.0
1075.0 271.0
1075.0 299.0
1075.0 328.0
1075.0 356.0
1075.0 385.0
1087.0 57.0
1087.0 96.0
1087.0 126.0
1087.0 154.0
1087.0 181.0
1087.0 210.0
1087.0 238.0
1087.0 266.0
1087.0 294.0
1087.0 324.0
1087.0 354.0
1087.0 384.0
1088.0 55.0
1088.0 96.0
1088.0 126.0
1088.0 154.0
1088.0 182.0
1088.0 210.0
1088.0 238.0
1088.0 266.0
1088.0 295.0
1088.0 324.0
1088.0 354.0
1088.0 384.0
1105.0 48.0
1105.0 80.0
1105.0 110.0
1105.0 134.0
1105.0 158.0
1105.0 182.0
1105.0 206.0
1105.0 230.0
1105.0 254.0
1105.0 277.0
1105.0 302.0
1105.0 326.0
1105.0 350.0
1105.0 374.0
1105.0 398.0
1114.0 51.0
1114.0 86.0
1114.0 116.0
1114.0 141.0
1114.0 165.0
1114.0 191.0
1114.0 217.0
1114.0 243.0
1114.0 268.0
1114.0 295.0
1114.0 322.0
1114.0 350.0
1114.0 377.0
1115.0 238.0
1115.0 358.0
1118.0 56.0
1118.0 94.0
1118.0 125.0
1118.0 152.0
1118.0 180.0
1118.0 206.0
1118.0 234.0
1118.0 260.0
1118.0 288.0
1118.0 315.0
1118.0 344.0
1118.0 372.0
1118.0 399.0
1134.0 303.0
1134.0 391.0
1135.0 58.0
1135.0 100.0
1135.0 131.0
1135.0 160.0
1135.0 191.0
1135.0 220.0
1135.0 251.0
1135.0 280.0
1135.0 310.0
1135.0 340.0
1135.0 370.0
1148.0 389.0
1156.0 35.0
1156.0 56.0
1156.0 77.0
1156.0 97.0
1156.0 116.0
1156.0 134.0
1156.0 152.0
1156.0 170.0
1156.0 188.0
1156.0 206.0
1156.0 224.0
1156.0 242.0
1156.0 260.0
1156.0 278.0
1156.0 296.0
1156.0 314.0
1156.0 332.0
1156.0 349.0
1156.0 367.0
1156.0 384.0
1165.0 36.0
1165.0 59.0
1165.0 81.0
1165.0 102.0
1165.0 121.0
1165.0 140.0
1165.0 159.0
1165.0 179.0
1165.0 199.0
1165.0 219.0
1165.0 238.0
1165.0 257.0
1165.0 276.0
1165.0 294.0
1165.0 313.0
1165.0 332.0
1165.0 351.0
1165.0 370.0
1165.0 388.0
1172.0 35.0
1172.0 57.0
1172.0 79.0
1172.0 101.0
1172.0 120.0
1172.0 138.0
1172.0 156.0
1172.0 174.0
1172.0 193.0
1172.0 211.0
1172.0 229.0
1172.0 248.0
1172.0 266.0
1172.0 284.0
1172.0 302.0
1172.0 320.0
1172.0 338.0
1172.0 356.0
1172.0 375.0
1172.0 392.0
1174.0 173.0
1174.0 253.0
1174.0 359.0
1204.0 57.0
1204.0 98.0
1204.0 129.0
1204.0 158.0
1204.0 186.0
1204.0 214.0
1204.0 243.0
1204.0 273.0
1204.0 302.0
1204.0 331.0
1204.0 360.0
1204.0 388.0
1222.0 52.0
1222.0 88.0
1222.0 118.0
1222.0 143.0
1222.0 167.0
1222.0 194.0
1222.0 219.0
1222.0 245.0
1222.0 270.0
1222.0 296.0
1222.0 323.0
1222.0 350.0
1222.0 376.0
1225.0 149.0
1225.0 230.0
1225.0 310.0
1225.0 391.0
1226.0 50.0
1226.0 83.0
1226.0 114.0
1226.0 140.0
1226.0 164.0
1226.0 188.0
1226.0 212.0
1226.0 236.0
1226.0 260.0
1226.0 284.0
1226.0 308.0
1226.0 333.0
1226.0 358.0
1226.0 383.0
1243.0 136.0
1243.0 190.0
1243.0 247.0
1243.0 314.0
1243.0 380.0
1251.0 36.0
1251.0 57.0
1251.0 78.0
1251.0 99.0
1251.0 117.0
1251.0 134.0
1251.0 152.0
1251.0 170.0
1251.0 188.0
1251.0 206.0
1251.0 225.0
1251.0 243.0
1251.0 261.0
1251.0 279.0
1251.0 297.0
1251.0 315.0
1251.0 333.0
1251.0 351.0
1251.0 368.0
1251.0 385.0
1253.0 36.0
1253.0 59.0
1253.0 81.0
1253.0 103.0
1253.0 122.0
1253.0 142.0
1253.0 161.0
1253.0 181.0
1253.0 201.0
1253.0 221.0
1253.0 241.0
1253.0 261.0
1253.0 280.0
1253.0 299.0
1253.0 319.0
1253.0 338.0
1253.0 358.0
1253.0 377.0
1253.0 396.0
1254.0 52.0
1254.0 89.0
1254.0 118.0
1254.0 145.0
1254.0 171.0
1254.0 199.0
1254.0 226.0
1254.0 253.0
1254.0 280.0
1254.0 307.0
1254.0 334.0
1254.0 363.0
1254.0 390.0
1257.0 197.0
1257.0 303.0
1337.0 52.0
1337.0 89.0
1337.0 119.0
1337.0 147.0
1337.0 174.0
1337.0 201.0
1337.0 229.0
1337.0 256.0
1337.0 283.0
1337.0 310.0
1337.0 338.0
1337.0 365.0
1337.0 393.0
1340.0 52.0
1340.0 89.0
1340.0 120.0
1340.0 146.0
1340.0 172.0
1340.0 199.0
1340.0 226.0
1340.0 251.0
1340.0 278.0
1340.0 304.0
1340.0 331.0
1340.0 358.0
1340.0 385.0
1345.0 57.0
1345.0 99.0
1345.0 129.0
1345.0 159.0
1345.0 189.0
1345.0 219.0
1345.0 249.0
1345.0 279.0
1345.0 309.0
1345.0 339.0
1345.0 369.0
1345.0 399.0
1355.0 139.0
1355.0 202.0
1355.0 265.0
1355.0 324.0
1355.0 390.0
1365.0 279.0
1390.0 36.0
1390.0 58.0
1390.0 79.0
1390.0 100.0
1390.0 119.0
1390.0 136.0
1390.0 154.0
1390.0 172.0
1390.0 191.0
1390.0 209.0
1390.0 227.0
1390.0 245.0
1390.0 263.0
1390.0 281.0
1390.0 299.0
1390.0 317.0
1390.0 335.0
1390.0 352.0
1390.0 370.0
1390.0 388.0
1404.0 38.0
1404.0 60.0
1404.0 82.0
1404.0 103.0
1404.0 122.0
1404.0 141.0
1404.0 159.0
1404.0 177.0
1404.0 195.0
1404.0 214.0
1404.0 233.0
1404.0 251.0
1404.0 269.0
1404.0 287.0
1404.0 306.0
1404.0 324.0
1404.0 342.0
1404.0 361.0
1404.0 379.0
1404.0 396.0
1417.0 59.0
1417.0 101.0
1417.0 134.0
1417.0 165.0
1417.0 197.0
1417.0 230.0
1417.0 262.0
1417.0 294.0
1417.0 327.0
1417.0 359.0
1417.0 392.0
1418.0 57.0
1418.0 99.0
1418.0 129.0
1418.0 156.0
1418.0 185.0
1418.0 215.0
1418.0 244.0
1418.0 275.0
1418.0 305.0
1418.0 335.0
1418.0 365.0
1418.0 395.0
1423.0 55.0
1423.0 94.0
1423.0 124.0
1423.0 153.0
1423.0 182.0
1423.0 211.0
1423.0 238.0
1423.0 267.0
1423.0 296.0
1423.0 323.0
1423.0 351.0
1423.0 379.0
1433.0 162.0
1433.0 249.0
1434.0 173.0
1434.0 326.0
1439.0 290.0
1442.0 6.0
1442.0 10.0
1442.0 14.0
1442.0 18.0
1442.0 22.0
1442.0 25.0
1442.0 29.0
1442.0 33.0
1442.0 36.0
1442.0 40.0
1442.0 44.0
1442.0 48.0
1442.0 52.0
1442.0 55.0
1442.0 59.0
1442.0 63.0
1442.0 66.0
1442.0 70.0
1442.0 74.0
1442.0 78.0
1442.0 82.0
1442.0 85.0
1442.0 89.0
1442.0 93.0
1442.0 96.0
1442.0 100.0
1442.0 103.0
1442.0 106.0
1442.0 109.0
1442.0 112.0
1442.0 115.0
1442.0 118.0
1442.0 121.0
1442.0 124.0
1442.0 127.0
1442.0 130.0
1442.0 133.0
1442.0 136.0
1442.0 139.0
1442.0 142.0
1442.0 145.0
1442.0 148.0
1442.0 151.0
1442.0 154.0
1442.0 157.0
1442.0 160.0
1442.0 163.0
1442.0 166.0
1442.0 169.0
1442.0 172.0
1442.0 175.0
1442.0 178.0
1442.0 181.0
1442.0 184.0
1442.0 187.0
1442.0 190.0
1442.0 193.0
1442.0 196.0
1442.0 199.0
1442.0 202.0
1442.0 205.0
1442.0 208.0
1442.0 211.0
1442.0 214.0
1442.0 217.0
1442.0 220.0
1442.0 223.0
1442.0 226.0
1442.0 229.0
1442.0 232.0
1442.0 235.0
1442.0 238.0
1442.0 241.0
1442.0 244.0
1442.0 247.0
1442.0 250.0
1442.0 253.0
1442.0 256.0
1442.0 259.0
1442.0 262.0
1442.0 265.0
1442.0 268.0
1442.0 271.0
1442.0 274.0
1442.0 277.0
1442.0 280.0
1442.0 283.0
1442.0 286.0
1442.0 289.0
1442.0 292.0
1442.0 295.0
1442.0 298.0
1442.0 301.0
1442.0 304.0
1442.0 307.0
1442.0 310.0
1442.0 313.0
1442.0 316.0
1442.0 319.0
1442.0 322.0
1442.0 325.0
1442.0 328.0
1442.0 331.0
1442.0 334.0
1442.0 337.0
1442.0 340.0
1442.0 343.0
1442.0 346.0
1442.0 349.0
1442.0 352.0
1442.0 355.0
1442.0 358.0
1442.0 361.0
1442.0 364.0
1442.0 367.0
1442.0 370.0
1442.0 373.0
1442.0 376.0
1442.0 379.0
1442.0 382.0
1442.0 385.0
1442.0 388.0
1442.0 391.0
1442.0 394.0
1442.0 397.0
1446.0 206.0
1446.0 310.0
